276.496	 -0.120	 -0.270
276.500	  0.065	 -0.290
276.504	  0.300	 -0.280
276.508	  0.505	 -0.300
276.512	  0.600	 -0.260
276.516	  0.700	 -0.250
276.520	  0.740	 -0.310
276.524	  0.745	 -0.685
276.528	  0.670	 -1.325
276.532	  0.590	 -1.965
276.536	  0.510	 -2.605
276.540	  0.445	 -3.145
276.544	  0.430	 -3.370
276.548	  0.435	 -3.455
276.552	  0.445	 -3.525
276.556	  0.435	 -3.565
276.560	  0.360	 -3.525
276.564	  0.235	 -3.510
276.568	  0.125	 -3.425
276.572	  0.075	 -3.235
276.576	  0.150	 -3.045
276.580	  0.310	 -2.850
276.584	  0.390	 -2.760
276.588	  0.380	 -2.635
276.592	  0.220	 -2.500
276.596	  0.000	 -2.210
276.600	 -0.205	 -1.855
276.604	 -0.335	 -1.455
276.608	 -0.400	 -1.160
276.612	 -0.410	 -0.935
276.616	 -0.415	 -0.740
276.620	 -0.480	 -0.590
276.624	 -0.520	 -0.420
276.628	 -0.560	 -0.220
276.632	 -0.575	 -0.045
276.636	 -0.560	  0.060
276.640	 -0.565	  0.115
276.644	 -0.570	  0.135
276.648	 -0.565	  0.130
276.652	 -0.555	  0.155
276.656	 -0.540	  0.130
276.660	 -0.555	  0.155
276.664	 -0.530	  0.150
276.668	 -0.545	  0.175
276.672	 -0.560	  0.165
276.676	 -0.575	  0.200
276.680	 -0.580	  0.200
276.684	 -0.560	  0.205
276.688	 -0.550	  0.215
276.692	 -0.530	  0.215
276.696	 -0.530	  0.220
276.700	 -0.555	  0.245
276.704	 -0.565	  0.240
276.708	 -0.580	  0.250
276.712	 -0.595	  0.270
276.716	 -0.590	  0.280
276.720	 -0.600	  0.295
276.724	 -0.580	  0.330
276.728	 -0.565	  0.330
276.732	 -0.595	  0.295
276.736	 -0.600	  0.325
276.740	 -0.600	  0.330
276.744	 -0.615	  0.330
276.748	 -0.625	  0.355
276.752	 -0.635	  0.400
276.756	 -0.615	  0.405
276.760	 -0.620	  0.415
276.764	 -0.630	  0.445
276.768	 -0.635	  0.475
276.772	 -0.665	  0.465
276.776	 -0.670	  0.485
276.780	 -0.680	  0.515
276.784	 -0.660	  0.525
276.788	 -0.670	  0.560
276.792	 -0.690	  0.590
276.796	 -0.670	  0.575
276.800	 -0.675	  0.610
276.804	 -0.690	  0.640
276.808	 -0.695	  0.650
276.812	 -0.695	  0.670
276.816	 -0.705	  0.675
276.820	 -0.725	  0.700
276.824	 -0.705	  0.730
276.828	 -0.685	  0.760
276.832	 -0.695	  0.780
276.836	 -0.690	  0.790
276.840	 -0.660	  0.805
276.844	 -0.660	  0.800
276.848	 -0.670	  0.825
276.852	 -0.685	  0.860
276.856	 -0.670	  0.860
276.860	 -0.670	  0.880
276.864	 -0.640	  0.885
276.868	 -0.650	  0.875
276.872	 -0.655	  0.905
276.876	 -0.650	  0.875
276.880	 -0.610	  0.880
276.884	 -0.605	  0.870
276.888	 -0.590	  0.875
276.892	 -0.560	  0.850
276.896	 -0.555	  0.850
276.900	 -0.530	  0.840
276.904	 -0.500	  0.795
276.908	 -0.470	  0.775
276.912	 -0.480	  0.745
276.916	 -0.445	  0.685
276.920	 -0.420	  0.630
276.924	 -0.425	  0.570
276.928	 -0.430	  0.540
276.932	 -0.405	  0.490
276.936	 -0.385	  0.455
276.940	 -0.375	  0.400
276.944	 -0.370	  0.330
276.948	 -0.360	  0.255
276.952	 -0.345	  0.225
276.956	 -0.360	  0.180
276.960	 -0.355	  0.130
276.964	 -0.375	  0.075
276.968	 -0.390	  0.055
276.972	 -0.370	  0.000
276.976	 -0.355	  0.005
276.980	 -0.370	 -0.010
276.984	 -0.360	 -0.045
276.988	 -0.365	 -0.075
276.992	 -0.385	 -0.080
276.996	 -0.400	 -0.095
277.000	 -0.425	 -0.090
277.004	 -0.420	 -0.100
277.008	 -0.435	 -0.115
277.012	 -0.410	 -0.120
277.016	 -0.405	 -0.105
277.020	 -0.400	 -0.120
277.024	 -0.420	 -0.115
277.028	 -0.415	 -0.105
277.032	 -0.405	 -0.100
277.036	 -0.425	 -0.090
277.040	 -0.435	 -0.110
277.044	 -0.430	 -0.100
277.048	 -0.435	 -0.090
277.052	 -0.435	 -0.095
277.056	 -0.440	 -0.085
277.060	 -0.405	 -0.100
277.064	 -0.425	 -0.115
277.068	 -0.430	 -0.105
277.072	 -0.435	 -0.080
277.076	 -0.450	 -0.085
277.080	 -0.440	 -0.120
277.084	 -0.435	 -0.100
277.088	 -0.425	 -0.090
277.092	 -0.425	 -0.120
277.096	 -0.385	 -0.120
277.100	 -0.385	 -0.135
277.104	 -0.400	 -0.140
277.108	 -0.410	 -0.135
277.112	 -0.440	 -0.140
277.116	 -0.415	 -0.140
277.120	 -0.420	 -0.145
277.124	 -0.390	 -0.145
277.128	 -0.380	 -0.160
277.132	 -0.395	 -0.170
277.136	 -0.385	 -0.180
277.140	 -0.395	 -0.175
277.144	 -0.385	 -0.185
277.148	 -0.400	 -0.200
277.152	 -0.410	 -0.190
277.156	 -0.410	 -0.185
277.160	 -0.405	 -0.190
277.164	 -0.385	 -0.200
277.168	 -0.390	 -0.210
277.172	 -0.400	 -0.225
277.176	 -0.390	 -0.220
277.180	 -0.390	 -0.220
277.184	 -0.380	 -0.215
277.188	 -0.350	 -0.235
277.192	 -0.335	 -0.230
277.196	 -0.315	 -0.200
277.200	 -0.275	 -0.215
277.204	 -0.245	 -0.230
277.208	 -0.225	 -0.235
277.212	 -0.230	 -0.210
277.216	 -0.220	 -0.195
277.220	 -0.225	 -0.175
277.224	 -0.195	 -0.150
277.228	 -0.155	 -0.150
277.232	 -0.125	 -0.145
277.236	 -0.135	 -0.100
277.240	 -0.110	 -0.095
277.244	 -0.135	 -0.090
277.248	 -0.190	 -0.105
277.252	 -0.195	 -0.115
277.256	 -0.205	 -0.115
277.260	 -0.225	 -0.120
277.264	 -0.230	 -0.145
277.268	 -0.225	 -0.185
277.272	 -0.235	 -0.205
277.276	 -0.255	 -0.235
277.280	 -0.260	 -0.245
277.284	 -0.280	 -0.245
277.288	 -0.310	 -0.265
277.292	 -0.330	 -0.270
277.296	 -0.360	 -0.295
277.300	 -0.370	 -0.280
277.304	 -0.400	 -0.285
277.308	 -0.390	 -0.310
277.312	 -0.380	 -0.280
277.316	 -0.400	 -0.270
277.320	 -0.405	 -0.260
277.324	 -0.415	 -0.260
277.328	 -0.420	 -0.260
277.332	 -0.435	 -0.270
277.336	 -0.400	 -0.260
277.340	 -0.390	 -0.285
277.344	 -0.385	 -0.285
277.348	 -0.385	 -0.305
277.352	 -0.385	 -0.270
277.356	 -0.415	 -0.300
277.360	 -0.400	 -0.280
277.364	 -0.405	 -0.260
277.368	 -0.420	 -0.275
277.372	 -0.400	 -0.275
277.376	 -0.385	 -0.285
277.380	 -0.370	 -0.265
277.384	 -0.380	 -0.295
277.388	 -0.380	 -0.290
277.392	 -0.385	 -0.295
277.396	 -0.375	 -0.295
277.400	 -0.360	 -0.285
277.404	 -0.340	 -0.285
277.408	 -0.285	 -0.290
277.412	 -0.205	 -0.280
277.416	 -0.090	 -0.290
277.420	  0.085	 -0.285
277.424	  0.265	 -0.295
277.428	  0.430	 -0.320
277.432	  0.530	 -0.295
277.436	  0.575	 -0.250
277.440	  0.615	 -0.260
277.444	  0.595	 -0.495
277.448	  0.590	 -1.045
277.452	  0.515	 -1.685
277.456	  0.470	 -2.325
277.460	  0.445	 -2.965
277.464	  0.445	 -3.225
277.468	  0.475	 -3.305
277.472	  0.475	 -3.390
277.476	  0.475	 -3.410
277.480	  0.455	 -3.455
277.484	  0.390	 -3.435
277.488	  0.275	 -3.355
277.492	  0.200	 -3.230
277.496	  0.210	 -3.055
277.500	  0.325	 -2.880
277.504	  0.450	 -2.770
277.508	  0.515	 -2.690
277.512	  0.420	 -2.575
277.516	  0.240	 -2.355
277.520	  0.025	 -2.030
277.524	 -0.155	 -1.670
277.528	 -0.265	 -1.310
277.532	 -0.285	 -1.050
277.536	 -0.290	 -0.870
277.540	 -0.325	 -0.700
277.544	 -0.370	 -0.560
277.548	 -0.410	 -0.390
277.552	 -0.470	 -0.195
277.556	 -0.455	 -0.050
277.560	 -0.460	  0.045
277.564	 -0.445	  0.105
277.568	 -0.440	  0.110
277.572	 -0.435	  0.115
277.576	 -0.425	  0.125
277.580	 -0.420	  0.120
277.584	 -0.440	  0.125
277.588	 -0.445	  0.150
277.592	 -0.455	  0.145
277.596	 -0.455	  0.175
277.600	 -0.435	  0.200
277.604	 -0.435	  0.200
277.608	 -0.425	  0.190
277.612	 -0.415	  0.205
277.616	 -0.405	  0.205
277.620	 -0.435	  0.210
277.624	 -0.435	  0.210
277.628	 -0.475	  0.225
277.632	 -0.470	  0.240
277.636	 -0.465	  0.255
277.640	 -0.440	  0.255
277.644	 -0.450	  0.275
277.648	 -0.470	  0.285
277.652	 -0.475	  0.295
277.656	 -0.495	  0.285
277.660	 -0.520	  0.310
277.664	 -0.515	  0.335
277.668	 -0.505	  0.325
277.672	 -0.510	  0.355
277.676	 -0.520	  0.400
277.680	 -0.515	  0.375
277.684	 -0.520	  0.410
277.688	 -0.555	  0.410
277.692	 -0.555	  0.430
277.696	 -0.565	  0.440
277.700	 -0.570	  0.485
277.704	 -0.590	  0.495
277.708	 -0.570	  0.510
277.712	 -0.570	  0.515
277.716	 -0.570	  0.545
277.720	 -0.565	  0.565
277.724	 -0.555	  0.560
277.728	 -0.580	  0.610
277.732	 -0.585	  0.610
277.736	 -0.610	  0.640
277.740	 -0.620	  0.665
277.744	 -0.610	  0.670
277.748	 -0.605	  0.715
277.752	 -0.585	  0.725
277.756	 -0.605	  0.730
277.760	 -0.590	  0.750
277.764	 -0.580	  0.765
277.768	 -0.590	  0.780
277.772	 -0.595	  0.810
277.776	 -0.595	  0.820
277.780	 -0.580	  0.830
277.784	 -0.545	  0.825
277.788	 -0.535	  0.835
277.792	 -0.535	  0.810
277.796	 -0.550	  0.845
277.800	 -0.535	  0.820
277.804	 -0.535	  0.820
277.808	 -0.505	  0.810
277.812	 -0.490	  0.810
277.816	 -0.465	  0.795
277.820	 -0.445	  0.780
277.824	 -0.420	  0.745
277.828	 -0.410	  0.705
277.832	 -0.390	  0.685
277.836	 -0.395	  0.665
277.840	 -0.390	  0.615
277.844	 -0.370	  0.580
277.848	 -0.345	  0.545
277.852	 -0.345	  0.485
277.856	 -0.320	  0.435
277.860	 -0.315	  0.395
277.864	 -0.305	  0.330
277.868	 -0.310	  0.270
277.872	 -0.315	  0.235
277.876	 -0.320	  0.175
277.880	 -0.325	  0.130
277.884	 -0.315	  0.090
277.888	 -0.340	  0.055
277.892	 -0.345	  0.030
277.896	 -0.340	 -0.030
277.900	 -0.320	 -0.030
277.904	 -0.340	 -0.050
277.908	 -0.345	 -0.070
277.912	 -0.355	 -0.090
277.916	 -0.350	 -0.085
277.920	 -0.355	 -0.095
277.924	 -0.370	 -0.090
277.928	 -0.380	 -0.115
277.932	 -0.360	 -0.120
277.936	 -0.370	 -0.130
277.940	 -0.380	 -0.135
277.944	 -0.390	 -0.145
277.948	 -0.385	 -0.120
277.952	 -0.410	 -0.115
277.956	 -0.410	 -0.120
277.960	 -0.405	 -0.095
277.964	 -0.390	 -0.090
277.968	 -0.395	 -0.115
277.972	 -0.415	 -0.100
277.976	 -0.395	 -0.105
277.980	 -0.420	 -0.115
277.984	 -0.425	 -0.120
277.988	 -0.420	 -0.105
277.992	 -0.415	 -0.085
277.996	 -0.410	 -0.125
278.000	 -0.425	 -0.115
278.004	 -0.435	 -0.115
278.008	 -0.430	 -0.130
278.012	 -0.410	 -0.125
278.016	 -0.410	 -0.120
278.020	 -0.435	 -0.120
278.024	 -0.430	 -0.130
278.028	 -0.435	 -0.105
278.032	 -0.410	 -0.135
278.036	 -0.425	 -0.130
278.040	 -0.415	 -0.145
278.044	 -0.415	 -0.150
278.048	 -0.415	 -0.145
278.052	 -0.430	 -0.160
278.056	 -0.425	 -0.170
278.060	 -0.430	 -0.170
278.064	 -0.420	 -0.160
278.068	 -0.410	 -0.175
278.072	 -0.415	 -0.180
278.076	 -0.405	 -0.165
278.080	 -0.370	 -0.170
278.084	 -0.380	 -0.190
278.088	 -0.380	 -0.190
278.092	 -0.415	 -0.200
278.096	 -0.410	 -0.210
278.100	 -0.390	 -0.200
278.104	 -0.375	 -0.180
278.108	 -0.350	 -0.190
278.112	 -0.330	 -0.215
278.116	 -0.300	 -0.210
278.120	 -0.295	 -0.210
278.124	 -0.295	 -0.215
278.128	 -0.275	 -0.185
278.132	 -0.270	 -0.180
278.136	 -0.250	 -0.150
278.140	 -0.230	 -0.135
278.144	 -0.215	 -0.145
278.148	 -0.195	 -0.105
278.152	 -0.155	 -0.080
278.156	 -0.155	 -0.105
278.160	 -0.185	 -0.100
278.164	 -0.200	 -0.100
278.168	 -0.230	 -0.100
278.172	 -0.240	 -0.100
278.176	 -0.235	 -0.105
278.180	 -0.250	 -0.115
278.184	 -0.285	 -0.145
278.188	 -0.295	 -0.180
278.192	 -0.295	 -0.205
278.196	 -0.290	 -0.225
278.200	 -0.315	 -0.200
278.204	 -0.345	 -0.245
278.208	 -0.375	 -0.235
278.212	 -0.390	 -0.260
278.216	 -0.415	 -0.250
278.220	 -0.425	 -0.270
278.224	 -0.440	 -0.260
278.228	 -0.440	 -0.260
278.232	 -0.450	 -0.270
278.236	 -0.460	 -0.240
278.240	 -0.470	 -0.240
278.244	 -0.485	 -0.240
278.248	 -0.485	 -0.225
278.252	 -0.465	 -0.235
278.256	 -0.470	 -0.240
278.260	 -0.450	 -0.240
278.264	 -0.445	 -0.250
278.268	 -0.470	 -0.255
278.272	 -0.430	 -0.250
278.276	 -0.460	 -0.250
278.280	 -0.450	 -0.240
278.284	 -0.470	 -0.240
278.288	 -0.450	 -0.245
278.292	 -0.450	 -0.240
278.296	 -0.430	 -0.255
278.300	 -0.430	 -0.260
278.304	 -0.430	 -0.255
278.308	 -0.420	 -0.240
278.312	 -0.415	 -0.250
278.316	 -0.405	 -0.250
278.320	 -0.385	 -0.225
278.324	 -0.320	 -0.235
278.328	 -0.225	 -0.235
278.332	 -0.120	 -0.235
278.336	  0.045	 -0.245
278.340	  0.250	 -0.270
278.344	  0.435	 -0.280
278.348	  0.590	 -0.260
278.352	  0.675	 -0.215
278.356	  0.705	 -0.195
278.360	  0.720	 -0.370
278.364	  0.705	 -0.825
278.368	  0.620	 -1.465
278.372	  0.525	 -2.105
278.376	  0.470	 -2.745
278.380	  0.430	 -3.090
278.384	  0.420	 -3.230
278.388	  0.420	 -3.300
278.392	  0.440	 -3.315
278.396	  0.415	 -3.340
278.400	  0.370	 -3.335
278.404	  0.235	 -3.290
278.408	  0.150	 -3.140
278.412	  0.135	 -2.970
278.416	  0.235	 -2.775
278.420	  0.390	 -2.605
278.424	  0.430	 -2.520
278.428	  0.330	 -2.405
278.432	  0.155	 -2.220
278.436	 -0.080	 -1.910
278.440	 -0.245	 -1.560
278.444	 -0.310	 -1.255
278.448	 -0.320	 -0.990
278.452	 -0.325	 -0.800
278.456	 -0.370	 -0.655
278.460	 -0.425	 -0.525
278.464	 -0.505	 -0.350
278.468	 -0.510	 -0.180
278.472	 -0.515	 -0.040
278.476	 -0.505	  0.080
278.480	 -0.505	  0.115
278.484	 -0.470	  0.140
278.488	 -0.485	  0.115
278.492	 -0.485	  0.120
278.496	 -0.500	  0.100
278.500	 -0.495	  0.145
278.504	 -0.500	  0.155
278.508	 -0.485	  0.150
278.512	 -0.445	  0.165
278.516	 -0.460	  0.165
278.520	 -0.460	  0.190
278.524	 -0.465	  0.170
278.528	 -0.480	  0.175
278.532	 -0.500	  0.170
278.536	 -0.515	  0.195
278.540	 -0.530	  0.195
278.544	 -0.530	  0.205
278.548	 -0.525	  0.230
278.552	 -0.505	  0.235
278.556	 -0.510	  0.220
278.560	 -0.520	  0.235
278.564	 -0.520	  0.275
278.568	 -0.550	  0.265
278.572	 -0.560	  0.280
278.576	 -0.565	  0.295
278.580	 -0.545	  0.315
278.584	 -0.560	  0.330
278.588	 -0.560	  0.350
278.592	 -0.555	  0.325
278.596	 -0.560	  0.350
278.600	 -0.580	  0.365
278.604	 -0.575	  0.365
278.608	 -0.575	  0.395
278.612	 -0.615	  0.440
278.616	 -0.620	  0.445
278.620	 -0.615	  0.435
278.624	 -0.635	  0.500
278.628	 -0.630	  0.485
278.632	 -0.630	  0.490
278.636	 -0.630	  0.520
278.640	 -0.650	  0.540
278.644	 -0.655	  0.540
278.648	 -0.645	  0.570
278.652	 -0.640	  0.600
278.656	 -0.645	  0.635
278.660	 -0.635	  0.660
278.664	 -0.610	  0.675
278.668	 -0.600	  0.675
278.672	 -0.615	  0.685
278.676	 -0.615	  0.695
278.680	 -0.635	  0.725
278.684	 -0.620	  0.710
278.688	 -0.625	  0.730
278.692	 -0.610	  0.770
278.696	 -0.615	  0.765
278.700	 -0.595	  0.765
278.704	 -0.595	  0.775
278.708	 -0.580	  0.775
278.712	 -0.570	  0.765
278.716	 -0.560	  0.770
278.720	 -0.565	  0.785
278.724	 -0.545	  0.755
278.728	 -0.545	  0.755
278.732	 -0.495	  0.750
278.736	 -0.480	  0.715
278.740	 -0.420	  0.685
278.744	 -0.445	  0.650
278.748	 -0.445	  0.635
278.752	 -0.435	  0.600
278.756	 -0.415	  0.560
278.760	 -0.395	  0.510
278.764	 -0.400	  0.465
278.768	 -0.375	  0.455
278.772	 -0.355	  0.395
278.776	 -0.355	  0.340
278.780	 -0.360	  0.300
278.784	 -0.355	  0.245
278.788	 -0.360	  0.210
278.792	 -0.380	  0.165
278.796	 -0.350	  0.125
278.800	 -0.335	  0.085
278.804	 -0.315	  0.050
278.808	 -0.355	  0.030
278.812	 -0.380	 -0.010
278.816	 -0.365	 -0.030
278.820	 -0.390	 -0.060
278.824	 -0.415	 -0.060
278.828	 -0.415	 -0.080
278.832	 -0.415	 -0.080
278.836	 -0.400	 -0.110
278.840	 -0.390	 -0.115
278.844	 -0.375	 -0.120
278.848	 -0.385	 -0.120
278.852	 -0.415	 -0.110
278.856	 -0.410	 -0.110
278.860	 -0.415	 -0.090
278.864	 -0.420	 -0.095
278.868	 -0.445	 -0.110
278.872	 -0.425	 -0.095
278.876	 -0.390	 -0.080
278.880	 -0.395	 -0.095
278.884	 -0.390	 -0.090
278.888	 -0.400	 -0.100
278.892	 -0.375	 -0.090
278.896	 -0.410	 -0.090
278.900	 -0.400	 -0.095
278.904	 -0.405	 -0.085
278.908	 -0.410	 -0.080
278.912	 -0.400	 -0.080
278.916	 -0.405	 -0.080
278.920	 -0.400	 -0.095
278.924	 -0.395	 -0.095
278.928	 -0.405	 -0.100
278.932	 -0.420	 -0.095
278.936	 -0.410	 -0.095
278.940	 -0.400	 -0.095
278.944	 -0.375	 -0.095
278.948	 -0.355	 -0.105
278.952	 -0.365	 -0.120
278.956	 -0.375	 -0.110
278.960	 -0.375	 -0.115
278.964	 -0.365	 -0.105
278.968	 -0.400	 -0.135
278.972	 -0.390	 -0.125
278.976	 -0.375	 -0.155
278.980	 -0.370	 -0.135
278.984	 -0.345	 -0.140
278.988	 -0.360	 -0.160
278.992	 -0.335	 -0.150
278.996	 -0.320	 -0.155
279.000	 -0.325	 -0.160
279.004	 -0.335	 -0.165
279.008	 -0.335	 -0.170
279.012	 -0.325	 -0.175
279.016	 -0.290	 -0.155
279.020	 -0.265	 -0.160
279.024	 -0.235	 -0.160
279.028	 -0.205	 -0.175
279.032	 -0.205	 -0.160
279.036	 -0.195	 -0.150
279.040	 -0.205	 -0.150
279.044	 -0.175	 -0.135
279.048	 -0.160	 -0.090
279.052	 -0.130	 -0.085
279.056	 -0.110	 -0.100
279.060	 -0.105	 -0.070
279.064	 -0.110	 -0.070
279.068	 -0.130	 -0.070
279.072	 -0.145	 -0.055
279.076	 -0.195	 -0.090
279.080	 -0.205	 -0.095
279.084	 -0.195	 -0.095
279.088	 -0.215	 -0.145
279.092	 -0.215	 -0.165
279.096	 -0.220	 -0.165
279.100	 -0.235	 -0.190
279.104	 -0.250	 -0.195
279.108	 -0.275	 -0.195
279.112	 -0.305	 -0.225
279.116	 -0.325	 -0.240
279.120	 -0.370	 -0.235
279.124	 -0.395	 -0.225
279.128	 -0.410	 -0.260
279.132	 -0.395	 -0.235
279.136	 -0.405	 -0.235
279.140	 -0.400	 -0.225
279.144	 -0.410	 -0.235
279.148	 -0.410	 -0.230
279.152	 -0.425	 -0.230
279.156	 -0.420	 -0.240
279.160	 -0.415	 -0.225
279.164	 -0.395	 -0.240
279.168	 -0.385	 -0.240
279.172	 -0.380	 -0.230
279.176	 -0.380	 -0.260
279.180	 -0.380	 -0.260
279.184	 -0.405	 -0.250
279.188	 -0.400	 -0.260
279.192	 -0.410	 -0.260
279.196	 -0.400	 -0.250
279.200	 -0.400	 -0.245
279.204	 -0.385	 -0.245
279.208	 -0.370	 -0.265
279.212	 -0.365	 -0.255
279.216	 -0.350	 -0.245
279.220	 -0.340	 -0.255
279.224	 -0.305	 -0.245
279.228	 -0.250	 -0.250
279.232	 -0.175	 -0.260
279.236	 -0.045	 -0.270
279.240	  0.135	 -0.265
279.244	  0.355	 -0.280
279.248	  0.545	 -0.300
279.252	  0.700	 -0.280
279.256	  0.795	 -0.255
279.260	  0.870	 -0.310
279.264	  0.870	 -0.550
279.268	  0.825	 -1.050
279.272	  0.755	 -1.690
279.276	  0.640	 -2.330
279.280	  0.555	 -2.835
279.284	  0.545	 -3.055
279.288	  0.555	 -3.165
279.292	  0.565	 -3.205
279.296	  0.560	 -3.235
279.300	  0.475	 -3.260
279.304	  0.370	 -3.205
279.308	  0.265	 -3.105
279.312	  0.190	 -2.950
279.316	  0.230	 -2.750
279.320	  0.385	 -2.585
279.324	  0.495	 -2.485
279.328	  0.480	 -2.375
279.332	  0.330	 -2.240
279.336	  0.105	 -1.975
279.340	 -0.120	 -1.665
279.344	 -0.255	 -1.330
279.348	 -0.305	 -1.035
279.352	 -0.315	 -0.840
279.356	 -0.320	 -0.705
279.360	 -0.370	 -0.565
279.364	 -0.435	 -0.420
279.368	 -0.485	 -0.255
279.372	 -0.505	 -0.090
279.376	 -0.505	  0.000
279.380	 -0.480	  0.075
279.384	 -0.455	  0.105
279.388	 -0.460	  0.090
279.392	 -0.460	  0.080
279.396	 -0.470	  0.090
279.400	 -0.470	  0.095
279.404	 -0.480	  0.090
279.408	 -0.480	  0.140
279.412	 -0.475	  0.135
279.416	 -0.470	  0.145
279.420	 -0.485	  0.145
279.424	 -0.480	  0.160
279.428	 -0.480	  0.150
279.432	 -0.475	  0.145
279.436	 -0.485	  0.135
279.440	 -0.495	  0.170
279.444	 -0.500	  0.175
279.448	 -0.485	  0.175
279.452	 -0.500	  0.200
279.456	 -0.510	  0.215
279.460	 -0.515	  0.210
279.464	 -0.500	  0.205
279.468	 -0.520	  0.215
279.472	 -0.530	  0.240
279.476	 -0.520	  0.250
279.480	 -0.560	  0.260
279.484	 -0.570	  0.280
279.488	 -0.580	  0.270
279.492	 -0.570	  0.285
279.496	 -0.565	  0.290
279.500	 -0.540	  0.310
279.504	 -0.570	  0.315
279.508	 -0.570	  0.350
279.512	 -0.595	  0.355
279.516	 -0.580	  0.375
279.520	 -0.600	  0.390
279.524	 -0.610	  0.435
279.528	 -0.620	  0.430
279.532	 -0.630	  0.445
279.536	 -0.625	  0.445
279.540	 -0.635	  0.465
279.544	 -0.635	  0.495
279.548	 -0.655	  0.530
279.552	 -0.645	  0.530
279.556	 -0.635	  0.530
279.560	 -0.640	  0.580
279.564	 -0.640	  0.580
279.568	 -0.640	  0.605
279.572	 -0.625	  0.635
279.576	 -0.655	  0.645
279.580	 -0.640	  0.645
279.584	 -0.640	  0.660
279.588	 -0.640	  0.685
279.592	 -0.640	  0.695
279.596	 -0.625	  0.700
279.600	 -0.630	  0.720
279.604	 -0.605	  0.745
279.608	 -0.585	  0.740
279.612	 -0.575	  0.715
279.616	 -0.585	  0.715
279.620	 -0.575	  0.700
279.624	 -0.550	  0.710
279.628	 -0.535	  0.720
279.632	 -0.525	  0.695
279.636	 -0.520	  0.665
279.640	 -0.490	  0.645
279.644	 -0.475	  0.610
279.648	 -0.440	  0.570
279.652	 -0.410	  0.540
279.656	 -0.425	  0.510
279.660	 -0.415	  0.480
279.664	 -0.390	  0.440
279.668	 -0.380	  0.400
279.672	 -0.365	  0.335
279.676	 -0.350	  0.295
279.680	 -0.350	  0.230
279.684	 -0.340	  0.185
279.688	 -0.345	  0.125
279.692	 -0.355	  0.080
279.696	 -0.360	  0.050
279.700	 -0.340	  0.020
279.704	 -0.360	 -0.025
279.708	 -0.350	 -0.050
279.712	 -0.330	 -0.090
279.716	 -0.345	 -0.115
279.720	 -0.330	 -0.125
279.724	 -0.340	 -0.175
279.728	 -0.355	 -0.190
279.732	 -0.355	 -0.195
279.736	 -0.380	 -0.195
279.740	 -0.375	 -0.205
279.744	 -0.390	 -0.200
279.748	 -0.385	 -0.215
279.752	 -0.375	 -0.210
279.756	 -0.365	 -0.200
279.760	 -0.385	 -0.205
279.764	 -0.405	 -0.200
279.768	 -0.400	 -0.205
279.772	 -0.415	 -0.215
279.776	 -0.410	 -0.190
279.780	 -0.425	 -0.190
279.784	 -0.415	 -0.200
279.788	 -0.410	 -0.200
279.792	 -0.390	 -0.210
279.796	 -0.415	 -0.195
279.800	 -0.440	 -0.210
279.804	 -0.455	 -0.150
279.808	 -0.425	 -0.185
279.812	 -0.445	 -0.180
279.816	 -0.430	 -0.180
279.820	 -0.410	 -0.180
279.824	 -0.395	 -0.190
279.828	 -0.400	 -0.205
279.832	 -0.430	 -0.190
279.836	 -0.435	 -0.200
279.840	 -0.425	 -0.200
279.844	 -0.430	 -0.210
279.848	 -0.415	 -0.210
279.852	 -0.420	 -0.195
279.856	 -0.410	 -0.210
279.860	 -0.400	 -0.230
279.864	 -0.415	 -0.245
279.868	 -0.405	 -0.245
279.872	 -0.400	 -0.240
279.876	 -0.415	 -0.240
279.880	 -0.415	 -0.230
279.884	 -0.430	 -0.260
279.888	 -0.415	 -0.270
279.892	 -0.415	 -0.235
279.896	 -0.395	 -0.240
279.900	 -0.385	 -0.260
279.904	 -0.385	 -0.255
279.908	 -0.395	 -0.265
279.912	 -0.405	 -0.265
279.916	 -0.415	 -0.255
279.920	 -0.400	 -0.270
279.924	 -0.380	 -0.265
279.928	 -0.345	 -0.285
279.932	 -0.305	 -0.270
279.936	 -0.275	 -0.280
279.940	 -0.280	 -0.285
279.944	 -0.260	 -0.280
279.948	 -0.250	 -0.265
279.952	 -0.230	 -0.240
279.956	 -0.200	 -0.250
279.960	 -0.185	 -0.230
279.964	 -0.180	 -0.215
279.968	 -0.110	 -0.195
279.972	 -0.115	 -0.170
279.976	 -0.100	 -0.170
279.980	 -0.120	 -0.155
279.984	 -0.115	 -0.150
279.988	 -0.165	 -0.150
279.992	 -0.180	 -0.160
279.996	 -0.195	 -0.155
280.000	 -0.200	 -0.185
280.004	 -0.220	 -0.200
280.008	 -0.225	 -0.225
280.012	 -0.215	 -0.275
280.016	 -0.245	 -0.245
280.020	 -0.240	 -0.265
280.024	 -0.270	 -0.290
280.028	 -0.320	 -0.290
280.032	 -0.340	 -0.300
280.036	 -0.350	 -0.295
280.040	 -0.345	 -0.315
280.044	 -0.380	 -0.320
280.048	 -0.400	 -0.345
280.052	 -0.395	 -0.320
280.056	 -0.410	 -0.340
280.060	 -0.410	 -0.320
280.064	 -0.405	 -0.310
280.068	 -0.420	 -0.300
280.072	 -0.445	 -0.310
280.076	 -0.410	 -0.320
280.080	 -0.395	 -0.335
280.084	 -0.405	 -0.325
280.088	 -0.405	 -0.320
280.092	 -0.415	 -0.330
280.096	 -0.420	 -0.320
280.100	 -0.420	 -0.340
280.104	 -0.410	 -0.325
280.108	 -0.405	 -0.340
280.112	 -0.375	 -0.310
280.116	 -0.360	 -0.335
280.120	 -0.390	 -0.320
280.124	 -0.385	 -0.340
280.128	 -0.410	 -0.350
280.132	 -0.385	 -0.335
280.136	 -0.365	 -0.320
280.140	 -0.360	 -0.340
280.144	 -0.335	 -0.350
280.148	 -0.285	 -0.325
280.152	 -0.195	 -0.325
280.156	 -0.070	 -0.330
280.160	  0.080	 -0.340
280.164	  0.255	 -0.365
280.168	  0.405	 -0.380
280.172	  0.550	 -0.375
280.176	  0.635	 -0.350
280.180	  0.670	 -0.355
280.184	  0.700	 -0.555
280.188	  0.675	 -0.995
280.192	  0.630	 -1.635
280.196	  0.550	 -2.275
280.200	  0.485	 -2.805
280.204	  0.470	 -3.035
280.208	  0.475	 -3.165
280.212	  0.485	 -3.190
280.216	  0.530	 -3.205
280.220	  0.515	 -3.230
280.224	  0.445	 -3.225
280.228	  0.350	 -3.190
280.232	  0.260	 -3.080
280.236	  0.225	 -2.890
280.240	  0.325	 -2.720
280.244	  0.460	 -2.570
280.248	  0.485	 -2.520
280.252	  0.425	 -2.380
280.256	  0.200	 -2.175
280.260	 -0.010	 -1.885
280.264	 -0.190	 -1.575
280.268	 -0.280	 -1.220
280.272	 -0.295	 -0.970
280.276	 -0.300	 -0.800
280.280	 -0.335	 -0.670
280.284	 -0.415	 -0.535
280.288	 -0.465	 -0.365
280.292	 -0.495	 -0.230
280.296	 -0.475	 -0.085
280.300	 -0.470	 -0.015
280.304	 -0.460	  0.015
280.308	 -0.460	  0.025
280.312	 -0.445	  0.025
280.316	 -0.460	  0.015
280.320	 -0.470	  0.035
280.324	 -0.455	  0.070
280.328	 -0.475	  0.050
280.332	 -0.480	  0.075
280.336	 -0.475	  0.075
280.340	 -0.470	  0.075
280.344	 -0.465	  0.090
280.348	 -0.465	  0.105
280.352	 -0.470	  0.115
280.356	 -0.485	  0.105
280.360	 -0.485	  0.115
280.364	 -0.470	  0.130
280.368	 -0.480	  0.130
280.372	 -0.470	  0.160
280.376	 -0.455	  0.155
280.380	 -0.485	  0.150
280.384	 -0.500	  0.165
280.388	 -0.500	  0.150
280.392	 -0.515	  0.210
280.396	 -0.515	  0.215
280.400	 -0.530	  0.210
280.404	 -0.540	  0.245
280.408	 -0.550	  0.240
280.412	 -0.540	  0.245
280.416	 -0.560	  0.255
280.420	 -0.565	  0.265
280.424	 -0.590	  0.275
280.428	 -0.610	  0.290
280.432	 -0.625	  0.330
280.436	 -0.630	  0.310
280.440	 -0.620	  0.360
280.444	 -0.605	  0.365
280.448	 -0.630	  0.365
280.452	 -0.640	  0.375
280.456	 -0.635	  0.405
280.460	 -0.660	  0.445
280.464	 -0.645	  0.440
280.468	 -0.645	  0.475
280.472	 -0.660	  0.485
280.476	 -0.655	  0.480
280.480	 -0.660	  0.520
280.484	 -0.645	  0.540
280.488	 -0.655	  0.550
280.492	 -0.645	  0.570
280.496	 -0.670	  0.585
280.500	 -0.660	  0.615
280.504	 -0.650	  0.615
280.508	 -0.640	  0.645
280.512	 -0.660	  0.645
280.516	 -0.645	  0.645
280.520	 -0.620	  0.680
280.524	 -0.615	  0.650
280.528	 -0.610	  0.670
280.532	 -0.605	  0.660
280.536	 -0.615	  0.670
280.540	 -0.610	  0.680
280.544	 -0.595	  0.660
280.548	 -0.565	  0.650
280.552	 -0.555	  0.655
280.556	 -0.525	  0.630
280.560	 -0.485	  0.615
280.564	 -0.480	  0.575
280.568	 -0.460	  0.565
280.572	 -0.455	  0.555
280.576	 -0.450	  0.520
280.580	 -0.420	  0.475
280.584	 -0.415	  0.415
280.588	 -0.400	  0.400
280.592	 -0.390	  0.340
280.596	 -0.385	  0.280
280.600	 -0.350	  0.240
280.604	 -0.370	  0.200
280.608	 -0.365	  0.125
280.612	 -0.385	  0.080
280.616	 -0.380	  0.040
280.620	 -0.385	  0.025
280.624	 -0.375	 -0.045
280.628	 -0.375	 -0.080
280.632	 -0.365	 -0.095
280.636	 -0.395	 -0.125
280.640	 -0.400	 -0.160
280.644	 -0.410	 -0.175
280.648	 -0.420	 -0.200
280.652	 -0.415	 -0.195
280.656	 -0.420	 -0.205
280.660	 -0.440	 -0.210
280.664	 -0.435	 -0.240
280.668	 -0.435	 -0.240
280.672	 -0.440	 -0.255
280.676	 -0.430	 -0.240
280.680	 -0.460	 -0.245
280.684	 -0.455	 -0.245
280.688	 -0.465	 -0.225
280.692	 -0.460	 -0.230
280.696	 -0.475	 -0.210
280.700	 -0.460	 -0.230
280.704	 -0.455	 -0.225
280.708	 -0.455	 -0.215
280.712	 -0.470	 -0.210
280.716	 -0.495	 -0.220
280.720	 -0.505	 -0.240
280.724	 -0.520	 -0.240
280.728	 -0.520	 -0.210
280.732	 -0.495	 -0.220
280.736	 -0.485	 -0.250
280.740	 -0.500	 -0.235
280.744	 -0.500	 -0.240
280.748	 -0.470	 -0.215
280.752	 -0.495	 -0.245
280.756	 -0.510	 -0.220
280.760	 -0.510	 -0.225
280.764	 -0.510	 -0.220
280.768	 -0.480	 -0.250
280.772	 -0.465	 -0.260
280.776	 -0.480	 -0.260
280.780	 -0.490	 -0.265
280.784	 -0.485	 -0.270
280.788	 -0.490	 -0.260
280.792	 -0.495	 -0.285
280.796	 -0.505	 -0.265
280.800	 -0.485	 -0.280
280.804	 -0.465	 -0.280
280.808	 -0.470	 -0.280
280.812	 -0.470	 -0.300
280.816	 -0.490	 -0.290
280.820	 -0.510	 -0.280
280.824	 -0.500	 -0.315
280.828	 -0.480	 -0.295
280.832	 -0.505	 -0.315
280.836	 -0.485	 -0.320
280.840	 -0.480	 -0.305
280.844	 -0.450	 -0.295
280.848	 -0.440	 -0.295
280.852	 -0.430	 -0.310
280.856	 -0.435	 -0.315
280.860	 -0.415	 -0.320
280.864	 -0.365	 -0.310
280.868	 -0.375	 -0.320
280.872	 -0.365	 -0.300
280.876	 -0.330	 -0.310
280.880	 -0.305	 -0.270
280.884	 -0.275	 -0.280
280.888	 -0.280	 -0.270
280.892	 -0.265	 -0.250
280.896	 -0.255	 -0.255
280.900	 -0.210	 -0.210
280.904	 -0.215	 -0.195
280.908	 -0.230	 -0.175
280.912	 -0.245	 -0.170
280.916	 -0.260	 -0.170
280.920	 -0.260	 -0.180
280.924	 -0.270	 -0.195
280.928	 -0.285	 -0.205
280.932	 -0.280	 -0.220
280.936	 -0.345	 -0.265
280.940	 -0.320	 -0.265
280.944	 -0.335	 -0.285
280.948	 -0.365	 -0.275
280.952	 -0.370	 -0.275
280.956	 -0.395	 -0.305
280.960	 -0.400	 -0.305
280.964	 -0.430	 -0.335
280.968	 -0.440	 -0.320
280.972	 -0.505	 -0.315
280.976	 -0.515	 -0.320
280.980	 -0.510	 -0.325
280.984	 -0.515	 -0.305
280.988	 -0.480	 -0.305
280.992	 -0.480	 -0.315
280.996	 -0.505	 -0.320
281.000	 -0.525	 -0.320
281.004	 -0.515	 -0.315
281.008	 -0.515	 -0.345
281.012	 -0.510	 -0.345
281.016	 -0.495	 -0.335
281.020	 -0.520	 -0.320
281.024	 -0.495	 -0.320
281.028	 -0.475	 -0.315
281.032	 -0.485	 -0.320
281.036	 -0.495	 -0.315
281.040	 -0.495	 -0.320
281.044	 -0.500	 -0.325
281.048	 -0.485	 -0.325
281.052	 -0.490	 -0.315
281.056	 -0.495	 -0.305
281.060	 -0.460	 -0.315
281.064	 -0.445	 -0.345
281.068	 -0.415	 -0.350
281.072	 -0.370	 -0.325
281.076	 -0.320	 -0.330
281.080	 -0.235	 -0.350
281.084	 -0.080	 -0.330
281.088	  0.095	 -0.350
281.092	  0.330	 -0.375
281.096	  0.500	 -0.390
281.100	  0.625	 -0.385
281.104	  0.685	 -0.385
281.108	  0.725	 -0.445
281.112	  0.695	 -0.710
281.116	  0.620	 -1.260
281.120	  0.540	 -1.900
281.124	  0.455	 -2.525
281.128	  0.375	 -2.860
281.132	  0.380	 -3.040
281.136	  0.385	 -3.085
281.140	  0.420	 -3.140
281.144	  0.410	 -3.165
281.148	  0.350	 -3.165
281.152	  0.250	 -3.115
281.156	  0.140	 -2.990
281.160	  0.085	 -2.840
281.164	  0.155	 -2.605
281.168	  0.315	 -2.470
281.172	  0.405	 -2.370
281.176	  0.385	 -2.270
281.180	  0.210	 -2.110
281.184	 -0.020	 -1.845
281.188	 -0.205	 -1.550
281.192	 -0.335	 -1.230
281.196	 -0.390	 -0.985
281.200	 -0.405	 -0.785
281.204	 -0.430	 -0.675
281.208	 -0.450	 -0.535
281.212	 -0.510	 -0.405
281.216	 -0.520	 -0.260
281.220	 -0.550	 -0.115
281.224	 -0.545	  0.000
281.228	 -0.575	  0.025
281.232	 -0.555	  0.060
281.236	 -0.575	  0.060
281.240	 -0.575	  0.040
281.244	 -0.550	  0.080
281.248	 -0.550	  0.080
281.252	 -0.535	  0.080
281.256	 -0.535	  0.090
281.260	 -0.540	  0.090
281.264	 -0.555	  0.090
281.268	 -0.535	  0.115
281.272	 -0.535	  0.135
281.276	 -0.540	  0.130
281.280	 -0.530	  0.145
281.284	 -0.545	  0.175
281.288	 -0.560	  0.150
281.292	 -0.580	  0.170
281.296	 -0.570	  0.170
281.300	 -0.580	  0.185
281.304	 -0.585	  0.190
281.308	 -0.585	  0.220
281.312	 -0.620	  0.210
281.316	 -0.600	  0.220
281.320	 -0.615	  0.235
281.324	 -0.605	  0.240
281.328	 -0.610	  0.235
281.332	 -0.625	  0.270
281.336	 -0.650	  0.260
281.340	 -0.650	  0.285
281.344	 -0.680	  0.310
281.348	 -0.665	  0.340
281.352	 -0.685	  0.325
281.356	 -0.665	  0.350
281.360	 -0.670	  0.355
281.364	 -0.675	  0.375
281.368	 -0.680	  0.385
281.372	 -0.705	  0.400
281.376	 -0.715	  0.410
281.380	 -0.725	  0.445
281.384	 -0.705	  0.455
281.388	 -0.725	  0.470
281.392	 -0.720	  0.505
281.396	 -0.735	  0.520
281.400	 -0.730	  0.525
281.404	 -0.730	  0.520
281.408	 -0.735	  0.555
281.412	 -0.750	  0.575
281.416	 -0.745	  0.605
281.420	 -0.750	  0.620
281.424	 -0.740	  0.635
281.428	 -0.725	  0.635
281.432	 -0.725	  0.655
281.436	 -0.720	  0.640
281.440	 -0.690	  0.645
281.444	 -0.700	  0.670
281.448	 -0.705	  0.670
281.452	 -0.705	  0.685
281.456	 -0.710	  0.715
281.460	 -0.690	  0.705
281.464	 -0.665	  0.695
281.468	 -0.615	  0.685
281.472	 -0.610	  0.675
281.476	 -0.595	  0.670
281.480	 -0.605	  0.655
281.484	 -0.610	  0.645
281.488	 -0.605	  0.625
281.492	 -0.565	  0.595
281.496	 -0.540	  0.575
281.500	 -0.520	  0.565
281.504	 -0.495	  0.500
281.508	 -0.480	  0.475
281.512	 -0.480	  0.445
281.516	 -0.470	  0.395
281.520	 -0.465	  0.360
281.524	 -0.475	  0.315
281.528	 -0.475	  0.265
281.532	 -0.460	  0.225
281.536	 -0.450	  0.160
281.540	 -0.450	  0.130
281.544	 -0.435	  0.075
281.548	 -0.430	  0.030
281.552	 -0.445	  0.020
281.556	 -0.460	 -0.035
281.560	 -0.470	 -0.065
281.564	 -0.470	 -0.075
281.568	 -0.470	 -0.095
281.572	 -0.460	 -0.135
281.576	 -0.475	 -0.130
281.580	 -0.455	 -0.160
281.584	 -0.475	 -0.150
281.588	 -0.495	 -0.155
281.592	 -0.500	 -0.165
281.596	 -0.515	 -0.180
281.600	 -0.515	 -0.180
281.604	 -0.520	 -0.160
281.608	 -0.520	 -0.155
281.612	 -0.510	 -0.155
281.616	 -0.500	 -0.200
281.620	 -0.490	 -0.175
281.624	 -0.525	 -0.170
281.628	 -0.530	 -0.160
281.632	 -0.545	 -0.175
281.636	 -0.545	 -0.160
281.640	 -0.530	 -0.160
281.644	 -0.510	 -0.165
281.648	 -0.505	 -0.175
281.652	 -0.520	 -0.160
281.656	 -0.530	 -0.145
281.660	 -0.525	 -0.160
281.664	 -0.530	 -0.145
281.668	 -0.525	 -0.145
281.672	 -0.515	 -0.130
281.676	 -0.530	 -0.160
281.680	 -0.540	 -0.165
281.684	 -0.540	 -0.175
281.688	 -0.545	 -0.195
281.692	 -0.540	 -0.185
281.696	 -0.505	 -0.205
281.700	 -0.520	 -0.190
281.704	 -0.505	 -0.190
281.708	 -0.515	 -0.210
281.712	 -0.500	 -0.190
281.716	 -0.510	 -0.195
281.720	 -0.465	 -0.225
281.724	 -0.475	 -0.215
281.728	 -0.500	 -0.225
281.732	 -0.515	 -0.230
281.736	 -0.525	 -0.220
281.740	 -0.505	 -0.225
281.744	 -0.530	 -0.220
281.748	 -0.510	 -0.240
281.752	 -0.500	 -0.245
281.756	 -0.490	 -0.230
281.760	 -0.465	 -0.235
281.764	 -0.460	 -0.250
281.768	 -0.460	 -0.245
281.772	 -0.450	 -0.255
281.776	 -0.400	 -0.255
281.780	 -0.375	 -0.240
281.784	 -0.350	 -0.235
281.788	 -0.335	 -0.255
281.792	 -0.350	 -0.240
281.796	 -0.330	 -0.195
281.800	 -0.315	 -0.200
281.804	 -0.300	 -0.175
281.808	 -0.275	 -0.180
281.812	 -0.285	 -0.155
281.816	 -0.240	 -0.145
281.820	 -0.245	 -0.140
281.824	 -0.265	 -0.135
281.828	 -0.295	 -0.175
281.832	 -0.320	 -0.170
281.836	 -0.345	 -0.170
281.840	 -0.340	 -0.185
281.844	 -0.345	 -0.210
281.848	 -0.385	 -0.230
281.852	 -0.415	 -0.245
281.856	 -0.425	 -0.240
281.860	 -0.415	 -0.265
281.864	 -0.415	 -0.285
281.868	 -0.450	 -0.275
281.872	 -0.465	 -0.305
281.876	 -0.500	 -0.290
281.880	 -0.520	 -0.310
281.884	 -0.550	 -0.320
281.888	 -0.540	 -0.290
281.892	 -0.545	 -0.305
281.896	 -0.535	 -0.305
281.900	 -0.515	 -0.290
281.904	 -0.530	 -0.290
281.908	 -0.530	 -0.295
281.912	 -0.540	 -0.295
281.916	 -0.555	 -0.310
281.920	 -0.535	 -0.315
281.924	 -0.525	 -0.315
281.928	 -0.530	 -0.305
281.932	 -0.530	 -0.300
281.936	 -0.530	 -0.315
281.940	 -0.510	 -0.310
281.944	 -0.505	 -0.305
281.948	 -0.540	 -0.320
281.952	 -0.550	 -0.290
281.956	 -0.540	 -0.280
281.960	 -0.530	 -0.305
281.964	 -0.495	 -0.290
281.968	 -0.480	 -0.295
281.972	 -0.480	 -0.270
281.976	 -0.455	 -0.280
281.980	 -0.410	 -0.275
281.984	 -0.380	 -0.285
281.988	 -0.320	 -0.315
281.992	 -0.200	 -0.280
281.996	 -0.065	 -0.295
282.000	  0.135	 -0.305
282.004	  0.375	 -0.325
282.008	  0.585	 -0.330
282.012	  0.715	 -0.325
282.016	  0.800	 -0.330
282.020	  0.855	 -0.445
282.024	  0.855	 -0.795
282.028	  0.800	 -1.410
282.032	  0.710	 -2.050
282.036	  0.610	 -2.655
282.040	  0.535	 -2.980
282.044	  0.530	 -3.110
282.048	  0.530	 -3.170
282.052	  0.520	 -3.210
282.056	  0.515	 -3.220
282.060	  0.410	 -3.220
282.064	  0.315	 -3.185
282.068	  0.190	 -3.085
282.072	  0.170	 -2.910
282.076	  0.245	 -2.705
282.080	  0.390	 -2.555
282.084	  0.495	 -2.450
282.088	  0.450	 -2.315
282.092	  0.240	 -2.120
282.096	 -0.030	 -1.835
282.100	 -0.220	 -1.525
282.104	 -0.335	 -1.175
282.108	 -0.405	 -0.930
282.112	 -0.375	 -0.770
282.116	 -0.410	 -0.635
282.120	 -0.455	 -0.490
282.124	 -0.525	 -0.350
282.128	 -0.565	 -0.190
282.132	 -0.570	 -0.060
282.136	 -0.560	  0.035
282.140	 -0.555	  0.050
282.144	 -0.575	  0.090
282.148	 -0.565	  0.100
282.152	 -0.530	  0.085
282.156	 -0.545	  0.100
282.160	 -0.520	  0.105
282.164	 -0.530	  0.095
282.168	 -0.540	  0.115
282.172	 -0.550	  0.105
282.176	 -0.560	  0.135
282.180	 -0.585	  0.145
282.184	 -0.565	  0.155
282.188	 -0.550	  0.165
282.192	 -0.555	  0.160
282.196	 -0.555	  0.190
282.200	 -0.570	  0.195
282.204	 -0.545	  0.205
282.208	 -0.565	  0.190
282.212	 -0.580	  0.230
282.216	 -0.595	  0.225
282.220	 -0.610	  0.235
282.224	 -0.600	  0.235
282.228	 -0.600	  0.250
282.232	 -0.605	  0.250
282.236	 -0.595	  0.260
282.240	 -0.605	  0.295
282.244	 -0.625	  0.285
282.248	 -0.655	  0.305
282.252	 -0.665	  0.325
282.256	 -0.640	  0.350
282.260	 -0.635	  0.345
282.264	 -0.635	  0.360
282.268	 -0.630	  0.365
282.272	 -0.640	  0.390
282.276	 -0.670	  0.405
282.280	 -0.705	  0.425
282.284	 -0.715	  0.460
282.288	 -0.705	  0.470
282.292	 -0.720	  0.500
282.296	 -0.720	  0.510
282.300	 -0.690	  0.530
282.304	 -0.700	  0.550
282.308	 -0.680	  0.570
282.312	 -0.700	  0.575
282.316	 -0.700	  0.600
282.320	 -0.735	  0.625
282.324	 -0.730	  0.645
282.328	 -0.710	  0.665
282.332	 -0.720	  0.700
282.336	 -0.700	  0.695
282.340	 -0.695	  0.720
282.344	 -0.710	  0.715
282.348	 -0.715	  0.725
282.352	 -0.715	  0.735
282.356	 -0.700	  0.745
282.360	 -0.680	  0.755
282.364	 -0.695	  0.770
282.368	 -0.665	  0.775
282.372	 -0.640	  0.780
282.376	 -0.640	  0.755
282.380	 -0.620	  0.770
282.384	 -0.620	  0.755
282.388	 -0.625	  0.720
282.392	 -0.605	  0.720
282.396	 -0.560	  0.730
282.400	 -0.540	  0.710
282.404	 -0.520	  0.660
282.408	 -0.505	  0.645
282.412	 -0.480	  0.585
282.416	 -0.450	  0.560
282.420	 -0.440	  0.525
282.424	 -0.450	  0.470
282.428	 -0.440	  0.420
282.432	 -0.435	  0.370
282.436	 -0.425	  0.315
282.440	 -0.410	  0.275
282.444	 -0.405	  0.230
282.448	 -0.370	  0.180
282.452	 -0.385	  0.110
282.456	 -0.385	  0.055
282.460	 -0.400	  0.030
282.464	 -0.440	 -0.015
282.468	 -0.450	 -0.045
282.472	 -0.440	 -0.060
282.476	 -0.440	 -0.080
282.480	 -0.445	 -0.100
282.484	 -0.430	 -0.120
282.488	 -0.445	 -0.145
282.492	 -0.460	 -0.175
282.496	 -0.465	 -0.190
282.500	 -0.465	 -0.190
282.504	 -0.470	 -0.175
282.508	 -0.480	 -0.180
282.512	 -0.445	 -0.180
282.516	 -0.465	 -0.170
282.520	 -0.455	 -0.205
282.524	 -0.455	 -0.200
282.528	 -0.460	 -0.185
282.532	 -0.450	 -0.180
282.536	 -0.480	 -0.170
282.540	 -0.490	 -0.160
282.544	 -0.490	 -0.150
282.548	 -0.505	 -0.160
282.552	 -0.495	 -0.195
282.556	 -0.475	 -0.180
282.560	 -0.455	 -0.150
282.564	 -0.455	 -0.165
282.568	 -0.475	 -0.155
282.572	 -0.495	 -0.160
282.576	 -0.495	 -0.165
282.580	 -0.510	 -0.175
282.584	 -0.515	 -0.155
282.588	 -0.500	 -0.155
282.592	 -0.475	 -0.180
282.596	 -0.475	 -0.175
282.600	 -0.475	 -0.195
282.604	 -0.460	 -0.180
282.608	 -0.470	 -0.195
282.612	 -0.475	 -0.165
282.616	 -0.485	 -0.190
282.620	 -0.475	 -0.190
282.624	 -0.480	 -0.190
282.628	 -0.450	 -0.210
282.632	 -0.450	 -0.215
282.636	 -0.455	 -0.200
282.640	 -0.455	 -0.190
282.644	 -0.475	 -0.220
282.648	 -0.470	 -0.205
282.652	 -0.465	 -0.210
282.656	 -0.445	 -0.225
282.660	 -0.450	 -0.230
282.664	 -0.425	 -0.225
282.668	 -0.435	 -0.240
282.672	 -0.425	 -0.240
282.676	 -0.440	 -0.240
282.680	 -0.420	 -0.250
282.684	 -0.430	 -0.230
282.688	 -0.400	 -0.240
282.692	 -0.400	 -0.240
282.696	 -0.355	 -0.230
282.700	 -0.320	 -0.230
282.704	 -0.290	 -0.250
282.708	 -0.300	 -0.230
282.712	 -0.265	 -0.225
282.716	 -0.265	 -0.195
282.720	 -0.240	 -0.180
282.724	 -0.245	 -0.165
282.728	 -0.215	 -0.155
282.732	 -0.175	 -0.160
282.736	 -0.170	 -0.115
282.740	 -0.190	 -0.130
282.744	 -0.195	 -0.120
282.748	 -0.245	 -0.145
282.752	 -0.265	 -0.160
282.756	 -0.275	 -0.170
282.760	 -0.275	 -0.160
282.764	 -0.300	 -0.205
282.768	 -0.310	 -0.225
282.772	 -0.320	 -0.240
282.776	 -0.335	 -0.245
282.780	 -0.350	 -0.260
282.784	 -0.375	 -0.275
282.788	 -0.375	 -0.275
282.792	 -0.405	 -0.290
282.796	 -0.435	 -0.300
282.800	 -0.460	 -0.300
282.804	 -0.465	 -0.285
282.808	 -0.470	 -0.290
282.812	 -0.465	 -0.300
282.816	 -0.500	 -0.285
282.820	 -0.520	 -0.285
282.824	 -0.520	 -0.295
282.828	 -0.515	 -0.295
282.832	 -0.515	 -0.310
282.836	 -0.510	 -0.290
282.840	 -0.495	 -0.275
282.844	 -0.500	 -0.285
282.848	 -0.470	 -0.280
282.852	 -0.480	 -0.290
282.856	 -0.485	 -0.290
282.860	 -0.505	 -0.300
282.864	 -0.505	 -0.290
282.868	 -0.515	 -0.295
282.872	 -0.495	 -0.295
282.876	 -0.480	 -0.305
282.880	 -0.480	 -0.300
282.884	 -0.470	 -0.300
282.888	 -0.450	 -0.295
282.892	 -0.460	 -0.305
282.896	 -0.435	 -0.290
282.900	 -0.410	 -0.285
282.904	 -0.355	 -0.305
282.908	 -0.295	 -0.295
282.912	 -0.195	 -0.300
282.916	 -0.080	 -0.315
282.920	  0.135	 -0.320
282.924	  0.345	 -0.335
282.928	  0.525	 -0.355
282.932	  0.620	 -0.340
282.936	  0.640	 -0.340
282.940	  0.680	 -0.460
282.944	  0.665	 -0.850
282.948	  0.610	 -1.490
282.952	  0.550	 -2.130
282.956	  0.495	 -2.765
282.960	  0.475	 -3.035
282.964	  0.465	 -3.145
282.968	  0.485	 -3.215
282.972	  0.500	 -3.235
282.976	  0.475	 -3.250
282.980	  0.440	 -3.230
282.984	  0.355	 -3.215
282.988	  0.255	 -3.080
282.992	  0.205	 -2.925
282.996	  0.280	 -2.735
283.000	  0.410	 -2.610
283.004	  0.515	 -2.525
283.008	  0.510	 -2.430
283.012	  0.365	 -2.240
283.016	  0.130	 -1.980
283.020	 -0.110	 -1.645
283.024	 -0.265	 -1.320
283.028	 -0.330	 -1.040
283.032	 -0.330	 -0.825
283.036	 -0.320	 -0.685
283.040	 -0.370	 -0.575
283.044	 -0.430	 -0.450
283.048	 -0.505	 -0.280
283.052	 -0.525	 -0.145
283.056	 -0.520	 -0.010
283.060	 -0.510	  0.085
283.064	 -0.510	  0.090
283.068	 -0.530	  0.085
283.072	 -0.525	  0.090
283.076	 -0.520	  0.115
283.080	 -0.515	  0.090
283.084	 -0.515	  0.115
283.088	 -0.525	  0.135
283.092	 -0.500	  0.145
283.096	 -0.515	  0.180
283.100	 -0.495	  0.170
283.104	 -0.485	  0.160
283.108	 -0.475	  0.175
283.112	 -0.505	  0.190
283.116	 -0.505	  0.190
283.120	 -0.520	  0.180
283.124	 -0.530	  0.210
283.128	 -0.535	  0.235
283.132	 -0.540	  0.230
283.136	 -0.520	  0.240
283.140	 -0.545	  0.265
283.144	 -0.545	  0.265
283.148	 -0.545	  0.275
283.152	 -0.555	  0.285
283.156	 -0.575	  0.305
283.160	 -0.580	  0.310
283.164	 -0.605	  0.325
283.168	 -0.610	  0.335
283.172	 -0.620	  0.350
283.176	 -0.590	  0.370
283.180	 -0.555	  0.375
283.184	 -0.605	  0.380
283.188	 -0.625	  0.410
283.192	 -0.660	  0.425
283.196	 -0.680	  0.435
283.200	 -0.675	  0.465
283.204	 -0.690	  0.470
283.208	 -0.675	  0.480
283.212	 -0.660	  0.495
283.216	 -0.665	  0.530
283.220	 -0.670	  0.545
283.224	 -0.685	  0.550
283.228	 -0.700	  0.570
283.232	 -0.705	  0.610
283.236	 -0.710	  0.635
283.240	 -0.695	  0.655
283.244	 -0.685	  0.655
283.248	 -0.690	  0.670
283.252	 -0.675	  0.685
283.256	 -0.665	  0.695
283.260	 -0.685	  0.730
283.264	 -0.690	  0.725
283.268	 -0.685	  0.760
283.272	 -0.680	  0.765
283.276	 -0.670	  0.745
283.280	 -0.655	  0.775
283.284	 -0.640	  0.785
283.288	 -0.620	  0.760
283.292	 -0.615	  0.755
283.296	 -0.600	  0.765
283.300	 -0.590	  0.760
283.304	 -0.585	  0.750
283.308	 -0.575	  0.755
283.312	 -0.595	  0.750
283.316	 -0.560	  0.730
283.320	 -0.545	  0.695
283.324	 -0.510	  0.675
283.328	 -0.495	  0.650
283.332	 -0.470	  0.585
283.336	 -0.455	  0.560
283.340	 -0.455	  0.535
283.344	 -0.445	  0.490
283.348	 -0.440	  0.470
283.352	 -0.435	  0.425
283.356	 -0.405	  0.345
283.360	 -0.385	  0.315
283.364	 -0.390	  0.245
283.368	 -0.395	  0.215
283.372	 -0.395	  0.145
283.376	 -0.405	  0.125
283.380	 -0.415	  0.075
283.384	 -0.415	  0.035
283.388	 -0.420	  0.005
283.392	 -0.415	 -0.010
283.396	 -0.410	 -0.040
283.400	 -0.395	 -0.060
283.404	 -0.425	 -0.085
283.408	 -0.415	 -0.115
283.412	 -0.420	 -0.130
283.416	 -0.440	 -0.120
283.420	 -0.475	 -0.130
283.424	 -0.455	 -0.145
283.428	 -0.460	 -0.145
283.432	 -0.460	 -0.145
283.436	 -0.475	 -0.160
283.440	 -0.480	 -0.175
283.444	 -0.480	 -0.160
283.448	 -0.500	 -0.140
283.452	 -0.480	 -0.150
283.456	 -0.480	 -0.160
283.460	 -0.505	 -0.150
283.464	 -0.490	 -0.160
283.468	 -0.490	 -0.160
283.472	 -0.500	 -0.160
283.476	 -0.495	 -0.160
283.480	 -0.485	 -0.165
283.484	 -0.505	 -0.145
283.488	 -0.520	 -0.150
283.492	 -0.535	 -0.165
283.496	 -0.520	 -0.145
283.500	 -0.520	 -0.160
283.504	 -0.510	 -0.180
283.508	 -0.525	 -0.175
283.512	 -0.520	 -0.170
283.516	 -0.505	 -0.180
283.520	 -0.510	 -0.190
283.524	 -0.515	 -0.190
283.528	 -0.515	 -0.195
283.532	 -0.520	 -0.190
283.536	 -0.500	 -0.185
283.540	 -0.495	 -0.200
283.544	 -0.480	 -0.230
283.548	 -0.485	 -0.235
283.552	 -0.495	 -0.210
283.556	 -0.485	 -0.230
283.560	 -0.480	 -0.240
283.564	 -0.515	 -0.230
283.568	 -0.515	 -0.230
283.572	 -0.500	 -0.255
283.576	 -0.510	 -0.230
283.580	 -0.505	 -0.260
283.584	 -0.485	 -0.265
283.588	 -0.510	 -0.250
283.592	 -0.525	 -0.255
283.596	 -0.520	 -0.260
283.600	 -0.510	 -0.255
283.604	 -0.515	 -0.250
283.608	 -0.510	 -0.270
283.612	 -0.480	 -0.250
283.616	 -0.480	 -0.260
283.620	 -0.465	 -0.280
283.624	 -0.460	 -0.280
283.628	 -0.430	 -0.280
283.632	 -0.430	 -0.250
283.636	 -0.395	 -0.260
283.640	 -0.380	 -0.235
283.644	 -0.350	 -0.215
283.648	 -0.330	 -0.195
283.652	 -0.315	 -0.190
283.656	 -0.305	 -0.200
283.660	 -0.280	 -0.180
283.664	 -0.280	 -0.160
283.668	 -0.255	 -0.155
283.672	 -0.265	 -0.145
283.676	 -0.290	 -0.135
283.680	 -0.305	 -0.150
283.684	 -0.310	 -0.160
283.688	 -0.330	 -0.170
283.692	 -0.330	 -0.170
283.696	 -0.350	 -0.215
283.700	 -0.395	 -0.255
283.704	 -0.405	 -0.260
283.708	 -0.420	 -0.260
283.712	 -0.440	 -0.260
283.716	 -0.440	 -0.285
283.720	 -0.445	 -0.305
283.724	 -0.475	 -0.300
283.728	 -0.495	 -0.330
283.732	 -0.510	 -0.330
283.736	 -0.550	 -0.330
283.740	 -0.590	 -0.320
283.744	 -0.590	 -0.305
283.748	 -0.580	 -0.295
283.752	 -0.585	 -0.305
283.756	 -0.585	 -0.315
283.760	 -0.585	 -0.325
283.764	 -0.585	 -0.310
283.768	 -0.570	 -0.315
283.772	 -0.580	 -0.320
283.776	 -0.590	 -0.320
283.780	 -0.585	 -0.285
283.784	 -0.585	 -0.320
283.788	 -0.565	 -0.330
283.792	 -0.580	 -0.300
283.796	 -0.575	 -0.300
283.800	 -0.580	 -0.330
283.804	 -0.580	 -0.310
283.808	 -0.575	 -0.305
283.812	 -0.565	 -0.300
283.816	 -0.585	 -0.310
283.820	 -0.565	 -0.305
283.824	 -0.550	 -0.305
283.828	 -0.510	 -0.300
283.832	 -0.500	 -0.290
283.836	 -0.450	 -0.300
283.840	 -0.400	 -0.300
283.844	 -0.325	 -0.300
283.848	 -0.190	 -0.315
283.852	  0.000	 -0.330
283.856	  0.210	 -0.340
283.860	  0.370	 -0.315
283.864	  0.515	 -0.265
283.868	  0.580	 -0.245
283.872	  0.595	 -0.420
283.876	  0.595	 -0.960
283.880	  0.540	 -1.600
283.884	  0.435	 -2.240
283.888	  0.330	 -2.880
283.892	  0.305	 -3.195
283.896	  0.295	 -3.305
283.900	  0.335	 -3.345
283.904	  0.365	 -3.380
283.908	  0.360	 -3.405
283.912	  0.275	 -3.400
283.916	  0.165	 -3.330
283.920	  0.075	 -3.160
283.924	  0.025	 -2.960
283.928	  0.110	 -2.770
283.932	  0.260	 -2.665
283.936	  0.335	 -2.575
283.940	  0.310	 -2.455
283.944	  0.140	 -2.205
283.948	 -0.115	 -1.855
283.952	 -0.310	 -1.465
283.956	 -0.445	 -1.135
283.960	 -0.465	 -0.900
283.964	 -0.460	 -0.730
283.968	 -0.500	 -0.600
283.972	 -0.550	 -0.460
283.976	 -0.605	 -0.240
283.980	 -0.625	 -0.060
283.984	 -0.615	  0.055
283.988	 -0.590	  0.120
283.992	 -0.605	  0.145
283.996	 -0.595	  0.145
284.000	 -0.605	  0.150
284.004	 -0.620	  0.155
284.008	 -0.640	  0.175
284.012	 -0.595	  0.180
284.016	 -0.610	  0.185
284.020	 -0.610	  0.200
284.024	 -0.600	  0.185
284.028	 -0.605	  0.210
284.032	 -0.605	  0.230
284.036	 -0.625	  0.225
284.040	 -0.610	  0.245
284.044	 -0.610	  0.250
284.048	 -0.620	  0.240
284.052	 -0.615	  0.245
284.056	 -0.625	  0.270
284.060	 -0.620	  0.270
284.064	 -0.630	  0.275
284.068	 -0.640	  0.275
284.072	 -0.640	  0.300
284.076	 -0.665	  0.315
284.080	 -0.670	  0.305
284.084	 -0.655	  0.345
284.088	 -0.655	  0.355
284.092	 -0.640	  0.360
284.096	 -0.675	  0.375
284.100	 -0.680	  0.375
284.104	 -0.700	  0.400
284.108	 -0.715	  0.405
284.112	 -0.715	  0.415
284.116	 -0.745	  0.435
284.120	 -0.745	  0.455
284.124	 -0.735	  0.480
284.128	 -0.745	  0.485
284.132	 -0.745	  0.480
284.136	 -0.775	  0.520
284.140	 -0.785	  0.545
284.144	 -0.760	  0.575
284.148	 -0.770	  0.580
284.152	 -0.765	  0.620
284.156	 -0.785	  0.635
284.160	 -0.770	  0.625
284.164	 -0.765	  0.670
284.168	 -0.790	  0.685
284.172	 -0.775	  0.695
284.176	 -0.755	  0.710
284.180	 -0.780	  0.735
284.184	 -0.770	  0.790
284.188	 -0.760	  0.785
284.192	 -0.755	  0.790
284.196	 -0.755	  0.805
284.200	 -0.755	  0.825
284.204	 -0.745	  0.825
284.208	 -0.740	  0.825
284.212	 -0.745	  0.835
284.216	 -0.740	  0.820
284.220	 -0.725	  0.835
284.224	 -0.715	  0.860
284.228	 -0.685	  0.855
284.232	 -0.670	  0.855
284.236	 -0.645	  0.820
284.240	 -0.650	  0.795
284.244	 -0.625	  0.790
284.248	 -0.640	  0.785
284.252	 -0.620	  0.770
284.256	 -0.600	  0.735
284.260	 -0.570	  0.700
284.264	 -0.545	  0.665
284.268	 -0.515	  0.605
284.272	 -0.500	  0.575
284.276	 -0.495	  0.520
284.280	 -0.480	  0.465
284.284	 -0.495	  0.415
284.288	 -0.500	  0.375
284.292	 -0.490	  0.305
284.296	 -0.490	  0.270
284.300	 -0.485	  0.215
284.304	 -0.475	  0.155
284.308	 -0.465	  0.115
284.312	 -0.460	  0.085
284.316	 -0.480	  0.050
284.320	 -0.510	  0.005
284.324	 -0.495	 -0.010
284.328	 -0.515	 -0.020
284.332	 -0.505	 -0.065
284.336	 -0.510	 -0.085
284.340	 -0.510	 -0.080
284.344	 -0.510	 -0.095
284.348	 -0.515	 -0.110
284.352	 -0.545	 -0.110
284.356	 -0.580	 -0.120
284.360	 -0.565	 -0.125
284.364	 -0.580	 -0.110
284.368	 -0.615	 -0.135
284.372	 -0.650	 -0.125
284.376	 -0.755	 -0.120
284.380	 -0.875	 -0.125
284.384	 -0.980	 -0.135
284.388	 -1.035	 -0.125
284.392	 -1.135	 -0.110
284.396	 -1.250	 -0.080
284.400	 -1.345	 -0.060
284.404	 -1.465	 -0.015
284.408	 -1.590	  0.025
284.412	 -1.710	  0.040
284.416	 -1.765	  0.065
284.420	 -1.820	  0.115
284.424	 -1.880	  0.170
284.428	 -1.945	  0.210
284.432	 -2.050	  0.240
284.436	 -2.200	  0.300
284.440	 -2.330	  0.355
284.444	 -2.460	  0.400
284.448	 -2.515	  0.455
284.452	 -2.580	  0.515
284.456	 -2.665	  0.580
284.460	 -2.755	  0.625
284.464	 -2.820	  0.660
284.468	 -2.890	  0.680
284.472	 -2.970	  0.705
284.476	 -3.060	  0.675
284.480	 -3.125	  0.635
284.484	 -3.170	  0.580
284.488	 -3.185	  0.510
284.492	 -3.215	  0.420
284.496	 -3.235	  0.350
284.500	 -3.200	  0.290
284.504	 -3.140	  0.250
284.508	 -3.035	  0.190
284.512	 -2.910	  0.150
284.516	 -2.770	  0.125
284.520	 -2.560	  0.130
284.524	 -2.360	  0.185
284.528	 -2.200	  0.245
284.532	 -2.075	  0.275
284.536	 -1.945	  0.245
284.540	 -1.735	  0.170
284.544	 -1.510	  0.065
284.548	 -1.260	 -0.065
284.552	 -0.980	 -0.260
284.556	 -0.665	 -0.560
284.560	 -0.380	 -0.830
284.564	 -0.215	 -1.005
284.568	 -0.080	 -1.040
284.572	  0.025	 -0.940
284.576	  0.135	 -0.745
284.580	  0.215	 -0.555
284.584	  0.295	 -0.430
284.588	  0.320	 -0.400
284.592	  0.325	 -0.390
284.596	  0.345	 -0.410
284.600	  0.375	 -0.460
284.604	  0.395	 -0.470
284.608	  0.420	 -0.480
284.612	  0.455	 -0.505
284.616	  0.465	 -0.490
284.620	  0.490	 -0.460
284.624	  0.515	 -0.430
284.628	  0.540	 -0.435
284.632	  0.555	 -0.430
284.636	  0.545	 -0.445
284.640	  0.555	 -0.435
284.644	  0.555	 -0.435
284.648	  0.555	 -0.425
284.652	  0.565	 -0.420
284.656	  0.595	 -0.415
284.660	  0.625	 -0.395
284.664	  0.645	 -0.405
284.668	  0.695	 -0.415
284.672	  0.710	 -0.420
284.676	  0.750	 -0.420
284.680	  0.775	 -0.430
284.684	  0.815	 -0.425
284.688	  0.835	 -0.430
284.692	  0.875	 -0.445
284.696	  0.895	 -0.445
284.700	  0.925	 -0.420
284.704	  0.950	 -0.445
284.708	  1.000	 -0.445
284.712	  1.045	 -0.465
284.716	  1.060	 -0.480
284.720	  1.075	 -0.450
284.724	  1.085	 -0.440
284.728	  1.090	 -0.440
284.732	  1.110	 -0.445
284.736	  1.145	 -0.425
284.740	  1.155	 -0.440
284.744	  1.180	 -0.430
284.748	  1.205	 -0.435
284.752	  1.205	 -0.415
284.756	  1.210	 -0.425
284.760	  1.220	 -0.420
284.764	  1.210	 -0.415
284.768	  1.195	 -0.400
284.772	  1.220	 -0.385
284.776	  1.235	 -0.380
284.780	  1.230	 -0.375
284.784	  1.220	 -0.355
284.788	  1.205	 -0.350
284.792	  1.185	 -0.325
284.796	  1.175	 -0.295
284.800	  1.160	 -0.270
284.804	  1.095	 -0.245
284.808	  1.065	 -0.255
284.812	  1.045	 -0.225
284.816	  1.025	 -0.195
284.820	  1.000	 -0.180
284.824	  0.975	 -0.155
284.828	  0.940	 -0.130
284.832	  0.890	 -0.095
284.836	  0.840	 -0.065
284.840	  0.790	 -0.060
284.844	  0.760	 -0.025
284.848	  0.710	 -0.030
284.852	  0.665	 -0.010
284.856	  0.635	 -0.020
284.860	  0.575	  0.020
284.864	  0.510	  0.030
284.868	  0.470	  0.045
284.872	  0.425	  0.075
284.876	  0.360	  0.075
284.880	  0.315	  0.115
284.884	  0.265	  0.105
284.888	  0.225	  0.120
284.892	  0.190	  0.105
284.896	  0.155	  0.085
284.900	  0.105	  0.100
284.904	  0.040	  0.075
284.908	 -0.015	  0.055
284.912	 -0.050	  0.080
284.916	 -0.090	  0.045
284.920	 -0.115	  0.020
284.924	 -0.135	 -0.010
284.928	 -0.150	 -0.015
284.932	 -0.210	 -0.055
284.936	 -0.245	 -0.065
284.940	 -0.265	 -0.085
284.944	 -0.295	 -0.105
284.948	 -0.335	 -0.115
284.952	 -0.335	 -0.150
284.956	 -0.350	 -0.150
284.960	 -0.345	 -0.160
284.964	 -0.350	 -0.175
284.968	 -0.365	 -0.185
284.972	 -0.400	 -0.195
284.976	 -0.400	 -0.195
284.980	 -0.425	 -0.215
284.984	 -0.455	 -0.195
284.988	 -0.445	 -0.220
284.992	 -0.460	 -0.205
284.996	 -0.470	 -0.235
285.000	 -0.445	 -0.225
285.004	 -0.425	 -0.245
285.008	 -0.445	 -0.255
285.012	 -0.460	 -0.250
285.016	 -0.480	 -0.260
285.020	 -0.485	 -0.215
285.024	 -0.460	 -0.250
285.028	 -0.485	 -0.235
285.032	 -0.480	 -0.240
285.036	 -0.490	 -0.255
285.040	 -0.495	 -0.255
285.044	 -0.480	 -0.255
285.048	 -0.485	 -0.260
285.052	 -0.490	 -0.265
285.056	 -0.500	 -0.265
285.060	 -0.510	 -0.265
285.064	 -0.500	 -0.255
285.068	 -0.490	 -0.265
285.072	 -0.475	 -0.265
285.076	 -0.465	 -0.240
285.080	 -0.480	 -0.255
285.084	 -0.480	 -0.275
285.088	 -0.500	 -0.270
285.092	 -0.505	 -0.270
285.096	 -0.490	 -0.285
285.100	 -0.485	 -0.290
285.104	 -0.475	 -0.270
285.108	 -0.450	 -0.265
285.112	 -0.465	 -0.290
285.116	 -0.480	 -0.270
285.120	 -0.480	 -0.295
285.124	 -0.470	 -0.310
285.128	 -0.480	 -0.285
285.132	 -0.470	 -0.285
285.136	 -0.480	 -0.285
285.140	 -0.480	 -0.265
285.144	 -0.480	 -0.280
285.148	 -0.470	 -0.290
285.152	 -0.465	 -0.275
285.156	 -0.465	 -0.275
285.160	 -0.490	 -0.285
285.164	 -0.470	 -0.275
285.168	 -0.505	 -0.265
285.172	 -0.505	 -0.270
285.176	 -0.480	 -0.270
285.180	 -0.490	 -0.270
285.184	 -0.495	 -0.285
285.188	 -0.495	 -0.295
285.192	 -0.465	 -0.290
285.196	 -0.480	 -0.275
285.200	 -0.490	 -0.280
285.204	 -0.485	 -0.280
285.208	 -0.495	 -0.260
285.212	 -0.495	 -0.260
285.216	 -0.490	 -0.250
285.220	 -0.465	 -0.275
285.224	 -0.465	 -0.250
285.228	 -0.480	 -0.275
285.232	 -0.455	 -0.260
285.236	 -0.475	 -0.245
285.240	 -0.485	 -0.260
285.244	 -0.490	 -0.255
285.248	 -0.485	 -0.265
285.252	 -0.475	 -0.270
285.256	 -0.475	 -0.270
285.260	 -0.455	 -0.275
285.264	 -0.455	 -0.280
285.268	 -0.470	 -0.275
285.272	 -0.490	 -0.255
285.276	 -0.465	 -0.265
285.280	 -0.480	 -0.265
285.284	 -0.485	 -0.270
285.288	 -0.475	 -0.255
285.292	 -0.475	 -0.290
285.296	 -0.460	 -0.285
285.300	 -0.480	 -0.280
285.304	 -0.465	 -0.300
285.308	 -0.475	 -0.290
285.312	 -0.485	 -0.275
285.316	 -0.480	 -0.270
285.320	 -0.490	 -0.290
285.324	 -0.480	 -0.260
285.328	 -0.470	 -0.280
285.332	 -0.475	 -0.280
285.336	 -0.465	 -0.290
285.340	 -0.455	 -0.285
285.344	 -0.450	 -0.305
285.348	 -0.485	 -0.295
285.352	 -0.485	 -0.305
285.356	 -0.505	 -0.305
285.360	 -0.505	 -0.275
285.364	 -0.500	 -0.280
285.368	 -0.480	 -0.275
285.372	 -0.460	 -0.285
285.376	 -0.495	 -0.305
285.380	 -0.485	 -0.285
285.384	 -0.480	 -0.300
285.388	 -0.485	 -0.285
285.392	 -0.490	 -0.300
285.396	 -0.485	 -0.285
285.400	 -0.455	 -0.310
285.404	 -0.475	 -0.295
285.408	 -0.465	 -0.300
285.412	 -0.455	 -0.295
285.416	 -0.455	 -0.310
285.420	 -0.475	 -0.315
285.424	 -0.495	 -0.290
285.428	 -0.485	 -0.305
285.432	 -0.490	 -0.295
285.436	 -0.480	 -0.295
285.440	 -0.450	 -0.315
285.444	 -0.430	 -0.310
285.448	 -0.410	 -0.295
285.452	 -0.405	 -0.315
285.456	 -0.395	 -0.280
285.460	 -0.390	 -0.290
285.464	 -0.380	 -0.260
285.468	 -0.370	 -0.265
285.472	 -0.320	 -0.225
285.476	 -0.315	 -0.220
285.480	 -0.295	 -0.205
285.484	 -0.285	 -0.210
285.488	 -0.260	 -0.170
285.492	 -0.270	 -0.160
285.496	 -0.275	 -0.175
285.500	 -0.275	 -0.175
285.504	 -0.315	 -0.185
285.508	 -0.330	 -0.185
285.512	 -0.320	 -0.185
285.516	 -0.320	 -0.225
285.520	 -0.335	 -0.245
285.524	 -0.345	 -0.285
285.528	 -0.385	 -0.290
285.532	 -0.395	 -0.285
285.536	 -0.415	 -0.295
285.540	 -0.430	 -0.315
285.544	 -0.445	 -0.315
285.548	 -0.445	 -0.340
285.552	 -0.440	 -0.345
285.556	 -0.480	 -0.350
285.560	 -0.520	 -0.365
285.564	 -0.525	 -0.365
285.568	 -0.535	 -0.350
285.572	 -0.540	 -0.350
285.576	 -0.550	 -0.350
285.580	 -0.540	 -0.320
285.584	 -0.550	 -0.345
285.588	 -0.540	 -0.355
285.592	 -0.545	 -0.375
285.596	 -0.535	 -0.355
285.600	 -0.550	 -0.365
285.604	 -0.570	 -0.355
285.608	 -0.565	 -0.360
285.612	 -0.570	 -0.360
285.616	 -0.550	 -0.365
285.620	 -0.535	 -0.340
285.624	 -0.535	 -0.335
285.628	 -0.520	 -0.350
285.632	 -0.520	 -0.375
285.636	 -0.525	 -0.350
285.640	 -0.530	 -0.345
285.644	 -0.525	 -0.340
285.648	 -0.535	 -0.345
285.652	 -0.520	 -0.320
285.656	 -0.475	 -0.350
285.660	 -0.380	 -0.340
285.664	 -0.295	 -0.355
285.668	 -0.165	 -0.370
285.672	  0.005	 -0.380
285.676	  0.195	 -0.380
285.680	  0.325	 -0.345
285.684	  0.405	 -0.285
285.688	  0.495	 -0.270
285.692	  0.530	 -0.545
285.696	  0.510	 -1.175
285.700	  0.475	 -1.815
285.704	  0.385	 -2.455
285.708	  0.305	 -3.095
285.712	  0.310	 -3.350
285.716	  0.290	 -3.430
285.720	  0.300	 -3.505
285.724	  0.335	 -3.530
285.728	  0.300	 -3.540
285.732	  0.220	 -3.525
285.736	  0.110	 -3.450
285.740	  0.005	 -3.300
285.744	 -0.040	 -3.110
285.748	  0.045	 -2.970
285.752	  0.175	 -2.885
285.756	  0.255	 -2.800
285.760	  0.165	 -2.655
285.764	 -0.020	 -2.370
285.768	 -0.205	 -2.000
285.772	 -0.360	 -1.610
285.776	 -0.415	 -1.235
285.780	 -0.435	 -0.995
285.784	 -0.435	 -0.805
285.788	 -0.455	 -0.675
285.792	 -0.525	 -0.500
285.796	 -0.570	 -0.300
285.800	 -0.600	 -0.135
285.804	 -0.605	  0.000
285.808	 -0.570	  0.065
285.812	 -0.575	  0.100
285.816	 -0.565	  0.055
285.820	 -0.570	  0.085
285.824	 -0.585	  0.120
285.828	 -0.600	  0.110
285.832	 -0.590	  0.120
285.836	 -0.610	  0.140
285.840	 -0.595	  0.155
285.844	 -0.580	  0.145
285.848	 -0.580	  0.155
285.852	 -0.580	  0.160
285.856	 -0.585	  0.145
285.860	 -0.605	  0.155
285.864	 -0.610	  0.180
285.868	 -0.615	  0.200
285.872	 -0.630	  0.190
285.876	 -0.650	  0.210
285.880	 -0.615	  0.225
285.884	 -0.630	  0.220
285.888	 -0.620	  0.240
285.892	 -0.650	  0.245
285.896	 -0.655	  0.270
285.900	 -0.685	  0.260
285.904	 -0.695	  0.270
285.908	 -0.705	  0.275
285.912	 -0.710	  0.315
285.916	 -0.705	  0.315
285.920	 -0.690	  0.320
285.924	 -0.690	  0.315
285.928	 -0.710	  0.340
285.932	 -0.715	  0.350
285.936	 -0.715	  0.375
285.940	 -0.730	  0.380
285.944	 -0.740	  0.405
285.948	 -0.760	  0.410
285.952	 -0.740	  0.415
285.956	 -0.720	  0.450
285.960	 -0.750	  0.450
285.964	 -0.750	  0.500
285.968	 -0.750	  0.510
285.972	 -0.760	  0.550
285.976	 -0.755	  0.535
285.980	 -0.755	  0.565
285.984	 -0.760	  0.615
285.988	 -0.750	  0.615
285.992	 -0.750	  0.635
285.996	 -0.730	  0.645
286.000	 -0.755	  0.660
286.004	 -0.755	  0.685
286.008	 -0.750	  0.695
286.012	 -0.760	  0.720
286.016	 -0.735	  0.740
286.020	 -0.730	  0.755
286.024	 -0.720	  0.770
286.028	 -0.705	  0.755
286.032	 -0.700	  0.760
286.036	 -0.700	  0.775
286.040	 -0.695	  0.785
286.044	 -0.720	  0.785
286.048	 -0.705	  0.800
286.052	 -0.695	  0.790
286.056	 -0.695	  0.770
286.060	 -0.680	  0.785
286.064	 -0.640	  0.775
286.068	 -0.635	  0.750
286.072	 -0.605	  0.735
286.076	 -0.595	  0.735
286.080	 -0.590	  0.720
286.084	 -0.590	  0.685
286.088	 -0.575	  0.660
286.092	 -0.575	  0.650
286.096	 -0.560	  0.615
286.100	 -0.545	  0.565
286.104	 -0.530	  0.510
286.108	 -0.520	  0.480
286.112	 -0.525	  0.415
286.116	 -0.520	  0.375
286.120	 -0.515	  0.345
286.124	 -0.530	  0.295
286.128	 -0.495	  0.235
286.132	 -0.525	  0.190
286.136	 -0.495	  0.165
286.140	 -0.495	  0.120
286.144	 -0.495	  0.085
286.148	 -0.500	  0.050
286.152	 -0.530	  0.015
286.156	 -0.520	 -0.025
286.160	 -0.545	 -0.025
286.164	 -0.535	 -0.050
286.168	 -0.520	 -0.060
286.172	 -0.530	 -0.040
286.176	 -0.545	 -0.080
286.180	 -0.520	 -0.095
286.184	 -0.530	 -0.095
286.188	 -0.555	 -0.090
286.192	 -0.560	 -0.100
286.196	 -0.560	 -0.105
286.200	 -0.585	 -0.095
286.204	 -0.575	 -0.100
286.208	 -0.555	 -0.085
286.212	 -0.565	 -0.070
286.216	 -0.575	 -0.100
286.220	 -0.565	 -0.095
286.224	 -0.575	 -0.080
286.228	 -0.580	 -0.080
286.232	 -0.565	 -0.075
286.236	 -0.560	 -0.085
286.240	 -0.570	 -0.060
286.244	 -0.570	 -0.085
286.248	 -0.575	 -0.080
286.252	 -0.570	 -0.090
286.256	 -0.580	 -0.090
286.260	 -0.590	 -0.120
286.264	 -0.560	 -0.090
286.268	 -0.580	 -0.095
286.272	 -0.580	 -0.115
286.276	 -0.550	 -0.120
286.280	 -0.540	 -0.105
286.284	 -0.540	 -0.140
286.288	 -0.535	 -0.145
286.292	 -0.540	 -0.170
286.296	 -0.540	 -0.170
286.300	 -0.550	 -0.160
286.304	 -0.550	 -0.160
286.308	 -0.555	 -0.170
286.312	 -0.535	 -0.175
286.316	 -0.520	 -0.185
286.320	 -0.515	 -0.195
286.324	 -0.530	 -0.210
286.328	 -0.530	 -0.220
286.332	 -0.525	 -0.215
286.336	 -0.545	 -0.220
286.340	 -0.535	 -0.230
286.344	 -0.535	 -0.225
286.348	 -0.530	 -0.235
286.352	 -0.530	 -0.230
286.356	 -0.520	 -0.255
286.360	 -0.530	 -0.240
286.364	 -0.550	 -0.265
286.368	 -0.540	 -0.250
286.372	 -0.535	 -0.245
286.376	 -0.525	 -0.240
286.380	 -0.515	 -0.255
286.384	 -0.500	 -0.245
286.388	 -0.460	 -0.260
286.392	 -0.440	 -0.255
286.396	 -0.430	 -0.260
286.400	 -0.440	 -0.245
286.404	 -0.420	 -0.230
286.408	 -0.395	 -0.200
286.412	 -0.385	 -0.185
286.416	 -0.385	 -0.175
286.420	 -0.355	 -0.140
286.424	 -0.325	 -0.130
286.428	 -0.305	 -0.110
286.432	 -0.305	 -0.130
286.436	 -0.310	 -0.120
286.440	 -0.335	 -0.100
286.444	 -0.370	 -0.120
286.448	 -0.360	 -0.150
286.452	 -0.395	 -0.120
286.456	 -0.400	 -0.175
286.460	 -0.385	 -0.210
286.464	 -0.365	 -0.235
286.468	 -0.390	 -0.265
286.472	 -0.420	 -0.260
286.476	 -0.440	 -0.265
286.480	 -0.475	 -0.285
286.484	 -0.485	 -0.295
286.488	 -0.485	 -0.305
286.492	 -0.505	 -0.310
286.496	 -0.530	 -0.315
286.500	 -0.545	 -0.330
286.504	 -0.540	 -0.310
286.508	 -0.550	 -0.310
286.512	 -0.545	 -0.295
286.516	 -0.540	 -0.305
286.520	 -0.575	 -0.305
286.524	 -0.575	 -0.310
286.528	 -0.570	 -0.305
286.532	 -0.565	 -0.310
286.536	 -0.555	 -0.300
286.540	 -0.545	 -0.310
286.544	 -0.550	 -0.310
286.548	 -0.540	 -0.305
286.552	 -0.560	 -0.305
286.556	 -0.555	 -0.310
286.560	 -0.560	 -0.320
286.564	 -0.555	 -0.300
286.568	 -0.560	 -0.330
286.572	 -0.545	 -0.315
286.576	 -0.550	 -0.315
286.580	 -0.535	 -0.315
286.584	 -0.535	 -0.305
286.588	 -0.545	 -0.295
286.592	 -0.540	 -0.305
286.596	 -0.510	 -0.295
286.600	 -0.475	 -0.285
286.604	 -0.405	 -0.265
286.608	 -0.320	 -0.295
286.612	 -0.160	 -0.330
286.616	 -0.005	 -0.295
286.620	  0.145	 -0.310
286.624	  0.225	 -0.255
286.628	  0.275	 -0.190
286.632	  0.310	 -0.260
286.636	  0.310	 -0.665
286.640	  0.285	 -1.305
286.644	  0.205	 -1.945
286.648	  0.140	 -2.585
286.652	  0.110	 -3.225
286.656	  0.075	 -3.430
286.660	  0.080	 -3.525
286.664	  0.100	 -3.535
286.668	  0.095	 -3.565
286.672	  0.080	 -3.575
286.676	  0.030	 -3.550
286.680	 -0.045	 -3.460
286.684	 -0.110	 -3.340
286.688	 -0.095	 -3.155
286.692	  0.010	 -2.995
286.696	  0.115	 -2.895
286.700	  0.155	 -2.815
286.704	  0.080	 -2.660
286.708	 -0.095	 -2.310
286.712	 -0.295	 -1.895
286.716	 -0.415	 -1.470
286.720	 -0.460	 -1.115
286.724	 -0.440	 -0.895
286.728	 -0.475	 -0.730
286.732	 -0.505	 -0.590
286.736	 -0.540	 -0.375
286.740	 -0.600	 -0.200
286.744	 -0.610	 -0.020
286.748	 -0.610	  0.115
286.752	 -0.590	  0.165
286.756	 -0.600	  0.170
286.760	 -0.605	  0.150
286.764	 -0.585	  0.150
286.768	 -0.575	  0.185
286.772	 -0.590	  0.205
286.776	 -0.605	  0.195
286.780	 -0.600	  0.215
286.784	 -0.590	  0.225
286.788	 -0.600	  0.230
286.792	 -0.585	  0.240
286.796	 -0.585	  0.260
286.800	 -0.570	  0.250
286.804	 -0.580	  0.265
286.808	 -0.575	  0.265
286.812	 -0.610	  0.275
286.816	 -0.620	  0.310
286.820	 -0.610	  0.310
286.824	 -0.600	  0.310
286.828	 -0.605	  0.340
286.832	 -0.620	  0.350
286.836	 -0.595	  0.350
286.840	 -0.600	  0.365
286.844	 -0.615	  0.370
286.848	 -0.640	  0.375
286.852	 -0.640	  0.415
286.856	 -0.655	  0.420
286.860	 -0.655	  0.440
286.864	 -0.645	  0.465
286.868	 -0.650	  0.465
286.872	 -0.635	  0.485
286.876	 -0.645	  0.485
286.880	 -0.665	  0.510
286.884	 -0.650	  0.540
286.888	 -0.690	  0.570
286.892	 -0.680	  0.560
286.896	 -0.695	  0.575
286.900	 -0.690	  0.605
286.904	 -0.685	  0.630
286.908	 -0.695	  0.670
286.912	 -0.685	  0.665
286.916	 -0.660	  0.685
286.920	 -0.700	  0.735
286.924	 -0.705	  0.750
286.928	 -0.705	  0.780
286.932	 -0.710	  0.810
286.936	 -0.695	  0.830
286.940	 -0.695	  0.850
286.944	 -0.680	  0.870
286.948	 -0.675	  0.890
286.952	 -0.685	  0.885
286.956	 -0.690	  0.910
286.960	 -0.660	  0.935
286.964	 -0.670	  0.935
286.968	 -0.670	  0.950
286.972	 -0.655	  0.955
286.976	 -0.655	  1.000
286.980	 -0.660	  0.970
286.984	 -0.635	  0.965
286.988	 -0.625	  0.975
286.992	 -0.610	  0.990
286.996	 -0.635	  0.980
287.000	 -0.605	  0.965
287.004	 -0.625	  0.975
287.008	 -0.600	  0.930
287.012	 -0.565	  0.925
287.016	 -0.555	  0.890
287.020	 -0.540	  0.845
287.024	 -0.525	  0.810
287.028	 -0.520	  0.795
287.032	 -0.505	  0.770
287.036	 -0.500	  0.700
287.040	 -0.490	  0.690
287.044	 -0.475	  0.615
287.048	 -0.460	  0.570
287.052	 -0.450	  0.530
287.056	 -0.430	  0.455
287.060	 -0.435	  0.390
287.064	 -0.455	  0.340
287.068	 -0.455	  0.275
287.072	 -0.445	  0.250
287.076	 -0.450	  0.195
287.080	 -0.460	  0.170
287.084	 -0.460	  0.130
287.088	 -0.460	  0.070
287.092	 -0.450	  0.050
287.096	 -0.465	  0.035
287.100	 -0.480	  0.010
287.104	 -0.470	  0.000
287.108	 -0.480	 -0.005
287.112	 -0.480	 -0.015
287.116	 -0.480	 -0.025
287.120	 -0.475	 -0.045
287.124	 -0.470	 -0.055
287.128	 -0.455	 -0.020
287.132	 -0.475	 -0.040
287.136	 -0.480	 -0.025
287.140	 -0.495	 -0.045
287.144	 -0.485	 -0.035
287.148	 -0.500	 -0.030
287.152	 -0.475	 -0.040
287.156	 -0.480	 -0.035
287.160	 -0.470	 -0.035
287.164	 -0.475	 -0.025
287.168	 -0.475	 -0.045
287.172	 -0.485	 -0.060
287.176	 -0.490	 -0.045
287.180	 -0.485	 -0.030
287.184	 -0.525	 -0.050
287.188	 -0.485	 -0.035
287.192	 -0.495	 -0.040
287.196	 -0.475	 -0.055
287.200	 -0.455	 -0.040
287.204	 -0.465	 -0.065
287.208	 -0.475	 -0.070
287.212	 -0.460	 -0.080
287.216	 -0.495	 -0.060
287.220	 -0.485	 -0.090
287.224	 -0.470	 -0.080
287.228	 -0.470	 -0.085
287.232	 -0.460	 -0.100
287.236	 -0.455	 -0.115
287.240	 -0.450	 -0.110
287.244	 -0.450	 -0.120
287.248	 -0.450	 -0.100
287.252	 -0.450	 -0.130
287.256	 -0.450	 -0.135
287.260	 -0.455	 -0.130
287.264	 -0.430	 -0.135
287.268	 -0.430	 -0.140
287.272	 -0.455	 -0.150
287.276	 -0.440	 -0.160
287.280	 -0.430	 -0.180
287.284	 -0.445	 -0.160
287.288	 -0.445	 -0.155
287.292	 -0.465	 -0.145
287.296	 -0.450	 -0.150
287.300	 -0.415	 -0.160
287.304	 -0.400	 -0.160
287.308	 -0.380	 -0.155
287.312	 -0.360	 -0.175
287.316	 -0.355	 -0.165
287.320	 -0.340	 -0.150
287.324	 -0.325	 -0.130
287.328	 -0.310	 -0.090
287.332	 -0.310	 -0.095
287.336	 -0.295	 -0.075
287.340	 -0.260	 -0.065
287.344	 -0.255	 -0.055
287.348	 -0.230	 -0.045
287.352	 -0.240	 -0.045
287.356	 -0.265	 -0.060
287.360	 -0.300	 -0.045
287.364	 -0.320	 -0.040
287.368	 -0.315	 -0.040
287.372	 -0.330	 -0.080
287.376	 -0.320	 -0.115
287.380	 -0.315	 -0.170
287.384	 -0.335	 -0.175
287.388	 -0.365	 -0.170
287.392	 -0.375	 -0.180
287.396	 -0.375	 -0.225
287.400	 -0.405	 -0.225
287.404	 -0.435	 -0.230
287.408	 -0.425	 -0.235
287.412	 -0.435	 -0.250
287.416	 -0.440	 -0.245
287.420	 -0.470	 -0.245
287.424	 -0.465	 -0.225
287.428	 -0.480	 -0.225
287.432	 -0.485	 -0.220
287.436	 -0.475	 -0.225
287.440	 -0.480	 -0.225
287.444	 -0.465	 -0.220
287.448	 -0.465	 -0.200
287.452	 -0.480	 -0.220
287.456	 -0.460	 -0.230
287.460	 -0.480	 -0.225
287.464	 -0.465	 -0.235
287.468	 -0.490	 -0.230
287.472	 -0.475	 -0.210
287.476	 -0.465	 -0.215
287.480	 -0.460	 -0.230
287.484	 -0.450	 -0.200
287.488	 -0.450	 -0.235
287.492	 -0.460	 -0.255
287.496	 -0.440	 -0.230
287.500	 -0.455	 -0.235
287.504	 -0.460	 -0.215
287.508	 -0.460	 -0.220
287.512	 -0.440	 -0.215
287.516	 -0.400	 -0.215
287.520	 -0.355	 -0.215
287.524	 -0.270	 -0.240
287.528	 -0.150	 -0.265
287.532	  0.005	 -0.260
287.536	  0.165	 -0.265
287.540	  0.315	 -0.235
287.544	  0.425	 -0.185
287.548	  0.500	 -0.175
287.552	  0.505	 -0.425
287.556	  0.500	 -1.025
287.560	  0.440	 -1.665
287.564	  0.345	 -2.305
287.568	  0.285	 -2.945
287.572	  0.250	 -3.480
287.576	  0.255	 -3.605
287.580	  0.245	 -3.655
287.584	  0.255	 -3.720
287.588	  0.245	 -3.715
287.592	  0.215	 -3.690
287.596	  0.135	 -3.605
287.600	  0.025	 -3.440
287.604	  0.005	 -3.190
287.608	  0.070	 -2.990
287.612	  0.185	 -2.880
287.616	  0.230	 -2.740
287.620	  0.160	 -2.585
287.624	  0.020	 -2.295
287.628	 -0.160	 -1.900
287.632	 -0.310	 -1.525
287.636	 -0.370	 -1.185
287.640	 -0.400	 -0.935
287.644	 -0.395	 -0.765
287.648	 -0.420	 -0.580
287.652	 -0.470	 -0.435
287.656	 -0.500	 -0.225
287.660	 -0.525	 -0.030
287.664	 -0.530	  0.105
287.668	 -0.510	  0.180
287.672	 -0.495	  0.200
287.676	 -0.500	  0.180
287.680	 -0.495	  0.180
287.684	 -0.495	  0.210
287.688	 -0.500	  0.225
287.692	 -0.500	  0.245
287.696	 -0.510	  0.235
287.700	 -0.495	  0.245
287.704	 -0.485	  0.250
287.708	 -0.480	  0.275
287.712	 -0.475	  0.275
287.716	 -0.495	  0.250
287.720	 -0.490	  0.275
287.724	 -0.505	  0.280
287.728	 -0.515	  0.305
287.732	 -0.510	  0.285
287.736	 -0.535	  0.310
287.740	 -0.505	  0.335
287.744	 -0.510	  0.305
287.748	 -0.505	  0.335
287.752	 -0.525	  0.345
287.756	 -0.530	  0.355
287.760	 -0.540	  0.355
287.764	 -0.540	  0.385
287.768	 -0.555	  0.415
287.772	 -0.535	  0.420
287.776	 -0.525	  0.425
287.780	 -0.545	  0.435
287.784	 -0.555	  0.455
287.788	 -0.560	  0.465
287.792	 -0.585	  0.470
287.796	 -0.585	  0.500
287.800	 -0.590	  0.525
287.804	 -0.585	  0.550
287.808	 -0.575	  0.560
287.812	 -0.585	  0.585
287.816	 -0.575	  0.605
287.820	 -0.580	  0.610
287.824	 -0.600	  0.650
287.828	 -0.605	  0.665
287.832	 -0.605	  0.675
287.836	 -0.605	  0.700
287.840	 -0.610	  0.725
287.844	 -0.615	  0.745
287.848	 -0.615	  0.795
287.852	 -0.610	  0.795
287.856	 -0.580	  0.820
287.860	 -0.590	  0.835
287.864	 -0.610	  0.865
287.868	 -0.600	  0.875
287.872	 -0.600	  0.885
287.876	 -0.600	  0.915
287.880	 -0.595	  0.925
287.884	 -0.590	  0.945
287.888	 -0.580	  0.940
287.892	 -0.580	  0.930
287.896	 -0.570	  0.935
287.900	 -0.565	  0.950
287.904	 -0.580	  0.965
287.908	 -0.560	  0.940
287.912	 -0.535	  0.965
287.916	 -0.525	  0.955
287.920	 -0.525	  0.925
287.924	 -0.505	  0.915
287.928	 -0.480	  0.880
287.932	 -0.480	  0.860
287.936	 -0.470	  0.845
287.940	 -0.460	  0.810
287.944	 -0.465	  0.755
287.948	 -0.450	  0.745
287.952	 -0.430	  0.700
287.956	 -0.400	  0.645
287.960	 -0.380	  0.595
287.964	 -0.370	  0.525
287.968	 -0.390	  0.470
287.972	 -0.395	  0.415
287.976	 -0.380	  0.365
287.980	 -0.375	  0.310
287.984	 -0.370	  0.265
287.988	 -0.375	  0.230
287.992	 -0.350	  0.190
287.996	 -0.355	  0.140
288.000	 -0.350	  0.100
288.004	 -0.370	  0.070
288.008	 -0.375	  0.050
288.012	 -0.385	  0.030
288.016	 -0.390	  0.000
288.020	 -0.390	  0.000
288.024	 -0.385	 -0.010
288.028	 -0.380	 -0.030
288.032	 -0.385	 -0.035
288.036	 -0.390	 -0.055
288.040	 -0.385	 -0.045
288.044	 -0.380	 -0.050
288.048	 -0.385	 -0.030
288.052	 -0.390	 -0.025
288.056	 -0.390	 -0.015
288.060	 -0.385	 -0.015
288.064	 -0.375	 -0.035
288.068	 -0.390	 -0.015
288.072	 -0.390	 -0.010
288.076	 -0.390	 -0.010
288.080	 -0.405	 -0.010
288.084	 -0.415	 -0.015
288.088	 -0.395	  0.015
288.092	 -0.410	 -0.005
288.096	 -0.405	 -0.015
288.100	 -0.395	  0.000
288.104	 -0.400	 -0.020
288.108	 -0.385	  0.000
288.112	 -0.395	 -0.030
288.116	 -0.400	 -0.035
288.120	 -0.395	 -0.060
288.124	 -0.400	 -0.040
288.128	 -0.410	 -0.050
288.132	 -0.395	 -0.035
288.136	 -0.365	 -0.030
288.140	 -0.375	 -0.055
288.144	 -0.380	 -0.060
288.148	 -0.370	 -0.070
288.152	 -0.370	 -0.070
288.156	 -0.395	 -0.080
288.160	 -0.395	 -0.085
288.164	 -0.380	 -0.090
288.168	 -0.395	 -0.085
288.172	 -0.380	 -0.105
288.176	 -0.350	 -0.095
288.180	 -0.375	 -0.115
288.184	 -0.350	 -0.110
288.188	 -0.365	 -0.105
288.192	 -0.365	 -0.115
288.196	 -0.365	 -0.110
288.200	 -0.370	 -0.120
288.204	 -0.345	 -0.125
288.208	 -0.345	 -0.125
288.212	 -0.320	 -0.115
288.216	 -0.265	 -0.125
288.220	 -0.275	 -0.105
288.224	 -0.275	 -0.120
288.228	 -0.265	 -0.110
288.232	 -0.245	 -0.095
288.236	 -0.245	 -0.075
288.240	 -0.215	 -0.050
288.244	 -0.190	 -0.045
288.248	 -0.185	 -0.020
288.252	 -0.160	 -0.020
288.256	 -0.140	 -0.020
288.260	 -0.150	 -0.015
288.264	 -0.180	 -0.010
288.268	 -0.205	 -0.015
288.272	 -0.200	 -0.015
288.276	 -0.205	 -0.020
288.280	 -0.210	 -0.060
288.284	 -0.200	 -0.065
288.288	 -0.230	 -0.090
288.292	 -0.225	 -0.140
288.296	 -0.240	 -0.150
288.300	 -0.275	 -0.140
288.304	 -0.295	 -0.160
288.308	 -0.310	 -0.165
288.312	 -0.300	 -0.175
288.316	 -0.315	 -0.175
288.320	 -0.325	 -0.200
288.324	 -0.320	 -0.220
288.328	 -0.360	 -0.210
288.332	 -0.360	 -0.195
288.336	 -0.380	 -0.170
288.340	 -0.385	 -0.175
288.344	 -0.365	 -0.190
288.348	 -0.365	 -0.185
288.352	 -0.370	 -0.180
288.356	 -0.355	 -0.190
288.360	 -0.350	 -0.215
288.364	 -0.365	 -0.190
288.368	 -0.365	 -0.185
288.372	 -0.365	 -0.195
288.376	 -0.360	 -0.195
288.380	 -0.375	 -0.190
288.384	 -0.375	 -0.200
288.388	 -0.365	 -0.190
288.392	 -0.380	 -0.185
288.396	 -0.365	 -0.170
288.400	 -0.345	 -0.180
288.404	 -0.370	 -0.195
288.408	 -0.355	 -0.200
288.412	 -0.355	 -0.175
288.416	 -0.350	 -0.170
288.420	 -0.330	 -0.175
288.424	 -0.295	 -0.165
288.428	 -0.240	 -0.185
288.432	 -0.175	 -0.195
288.436	 -0.075	 -0.195
288.440	  0.065	 -0.210
288.444	  0.235	 -0.215
288.448	  0.350	 -0.185
288.452	  0.430	 -0.130
288.456	  0.485	 -0.130
288.460	  0.525	 -0.375
288.464	  0.505	 -0.930
288.468	  0.470	 -1.570
288.472	  0.395	 -2.210
288.476	  0.325	 -2.850
288.480	  0.295	 -3.120
288.484	  0.285	 -3.200
288.488	  0.290	 -3.235
288.492	  0.335	 -3.250
288.496	  0.335	 -3.295
288.500	  0.285	 -3.275
288.504	  0.210	 -3.240
288.508	  0.150	 -3.090
288.512	  0.095	 -2.925
288.516	  0.130	 -2.755
288.520	  0.260	 -2.640
288.524	  0.335	 -2.570
288.528	  0.325	 -2.445
288.532	  0.220	 -2.210
288.536	  0.025	 -1.875
288.540	 -0.145	 -1.490
288.544	 -0.240	 -1.115
288.548	 -0.285	 -0.870
288.552	 -0.300	 -0.705
288.556	 -0.310	 -0.575
288.560	 -0.355	 -0.440
288.564	 -0.405	 -0.285
288.568	 -0.435	 -0.095
288.572	 -0.435	  0.050
288.576	 -0.415	  0.145
288.580	 -0.435	  0.195
288.584	 -0.440	  0.175
288.588	 -0.420	  0.190
288.592	 -0.435	  0.170
288.596	 -0.440	  0.175
288.600	 -0.430	  0.205
288.604	 -0.425	  0.220
288.608	 -0.430	  0.240
288.612	 -0.420	  0.230
288.616	 -0.415	  0.260
288.620	 -0.405	  0.260
288.624	 -0.435	  0.270
288.628	 -0.430	  0.255
288.632	 -0.450	  0.270
288.636	 -0.430	  0.285
288.640	 -0.440	  0.285
288.644	 -0.435	  0.305
288.648	 -0.440	  0.325
288.652	 -0.430	  0.320
288.656	 -0.425	  0.300
288.660	 -0.445	  0.315
288.664	 -0.450	  0.330
288.668	 -0.480	  0.335
288.672	 -0.475	  0.365
288.676	 -0.490	  0.380
288.680	 -0.485	  0.375
288.684	 -0.485	  0.390
288.688	 -0.495	  0.415
288.692	 -0.495	  0.415
288.696	 -0.515	  0.395
288.700	 -0.520	  0.440
288.704	 -0.505	  0.455
288.708	 -0.520	  0.465
288.712	 -0.540	  0.495
288.716	 -0.525	  0.520
288.720	 -0.520	  0.530
288.724	 -0.530	  0.535
288.728	 -0.540	  0.580
288.732	 -0.540	  0.570
288.736	 -0.545	  0.595
288.740	 -0.555	  0.615
288.744	 -0.560	  0.630
288.748	 -0.585	  0.660
288.752	 -0.550	  0.675
288.756	 -0.555	  0.695
288.760	 -0.540	  0.710
288.764	 -0.545	  0.740
288.768	 -0.555	  0.735
288.772	 -0.545	  0.760
288.776	 -0.560	  0.775
288.780	 -0.550	  0.775
288.784	 -0.560	  0.795
288.788	 -0.540	  0.820
288.792	 -0.530	  0.800
288.796	 -0.530	  0.820
288.800	 -0.525	  0.820
288.804	 -0.535	  0.840
288.808	 -0.515	  0.825
288.812	 -0.510	  0.840
288.816	 -0.520	  0.860
288.820	 -0.500	  0.840
288.824	 -0.475	  0.835
288.828	 -0.465	  0.805
288.832	 -0.445	  0.775
288.836	 -0.430	  0.755
288.840	 -0.425	  0.745
288.844	 -0.415	  0.725
288.848	 -0.410	  0.690
288.852	 -0.415	  0.665
288.856	 -0.370	  0.610
288.860	 -0.355	  0.565
288.864	 -0.350	  0.545
288.868	 -0.320	  0.470
288.872	 -0.305	  0.430
288.876	 -0.310	  0.390
288.880	 -0.330	  0.345
288.884	 -0.330	  0.290
288.888	 -0.335	  0.250
288.892	 -0.330	  0.185
288.896	 -0.320	  0.160
288.900	 -0.315	  0.125
288.904	 -0.320	  0.105
288.908	 -0.315	  0.055
288.912	 -0.335	  0.020
288.916	 -0.350	  0.005
288.920	 -0.370	  0.000
288.924	 -0.340	 -0.015
288.928	 -0.360	 -0.030
288.932	 -0.365	 -0.035
288.936	 -0.350	 -0.050
288.940	 -0.370	 -0.035
288.944	 -0.350	 -0.085
288.948	 -0.345	 -0.065
288.952	 -0.370	 -0.070
288.956	 -0.380	 -0.040
288.960	 -0.365	 -0.060
288.964	 -0.390	 -0.050
288.968	 -0.380	 -0.050
288.972	 -0.395	 -0.065
288.976	 -0.355	 -0.060
288.980	 -0.360	 -0.055
288.984	 -0.375	 -0.040
288.988	 -0.385	 -0.060
288.992	 -0.370	 -0.040
288.996	 -0.385	 -0.035
289.000	 -0.395	 -0.025
289.004	 -0.380	 -0.050
289.008	 -0.385	 -0.025
289.012	 -0.360	 -0.045
289.016	 -0.380	 -0.055
289.020	 -0.375	 -0.030
289.024	 -0.385	 -0.050
289.028	 -0.385	 -0.060
289.032	 -0.380	 -0.040
289.036	 -0.395	 -0.070
289.040	 -0.395	 -0.050
289.044	 -0.370	 -0.050
289.048	 -0.345	 -0.050
289.052	 -0.350	 -0.080
289.056	 -0.345	 -0.055
289.060	 -0.340	 -0.090
289.064	 -0.360	 -0.080
289.068	 -0.360	 -0.070
289.072	 -0.345	 -0.100
289.076	 -0.360	 -0.090
289.080	 -0.350	 -0.095
289.084	 -0.330	 -0.110
289.088	 -0.325	 -0.105
289.092	 -0.330	 -0.095
289.096	 -0.320	 -0.105
289.100	 -0.315	 -0.120
289.104	 -0.345	 -0.105
289.108	 -0.345	 -0.115
289.112	 -0.305	 -0.115
289.116	 -0.305	 -0.095
289.120	 -0.275	 -0.120
289.124	 -0.255	 -0.105
289.128	 -0.235	 -0.115
289.132	 -0.235	 -0.115
289.136	 -0.225	 -0.105
289.140	 -0.225	 -0.080
289.144	 -0.225	 -0.080
289.148	 -0.200	 -0.065
289.152	 -0.160	 -0.060
289.156	 -0.150	 -0.050
289.160	 -0.125	 -0.030
289.164	 -0.120	 -0.025
289.168	 -0.140	 -0.025
289.172	 -0.160	 -0.025
289.176	 -0.190	 -0.055
289.180	 -0.200	 -0.045
289.184	 -0.205	 -0.035
289.188	 -0.195	 -0.060
289.192	 -0.220	 -0.080
289.196	 -0.235	 -0.100
289.200	 -0.250	 -0.130
289.204	 -0.240	 -0.140
289.208	 -0.270	 -0.135
289.212	 -0.280	 -0.135
289.216	 -0.295	 -0.145
289.220	 -0.305	 -0.160
289.224	 -0.315	 -0.175
289.228	 -0.320	 -0.180
289.232	 -0.345	 -0.180
289.236	 -0.360	 -0.175
289.240	 -0.370	 -0.175
289.244	 -0.375	 -0.185
289.248	 -0.375	 -0.175
289.252	 -0.385	 -0.165
289.256	 -0.395	 -0.180
289.260	 -0.375	 -0.180
289.264	 -0.355	 -0.185
289.268	 -0.335	 -0.170
289.272	 -0.340	 -0.170
289.276	 -0.340	 -0.160
289.280	 -0.345	 -0.185
289.284	 -0.355	 -0.190
289.288	 -0.365	 -0.185
289.292	 -0.365	 -0.195
289.296	 -0.360	 -0.195
289.300	 -0.355	 -0.165
289.304	 -0.330	 -0.190
289.308	 -0.345	 -0.190
289.312	 -0.340	 -0.200
289.316	 -0.340	 -0.175
289.320	 -0.325	 -0.190
289.324	 -0.315	 -0.170
289.328	 -0.290	 -0.170
289.332	 -0.265	 -0.160
289.336	 -0.205	 -0.210
289.340	 -0.115	 -0.165
289.344	  0.005	 -0.195
289.348	  0.155	 -0.195
289.352	  0.290	 -0.180
289.356	  0.375	 -0.165
289.360	  0.410	 -0.100
289.364	  0.410	 -0.120
289.368	  0.405	 -0.435
289.372	  0.355	 -1.055
289.376	  0.335	 -1.695
289.380	  0.270	 -2.170
289.384	  0.250	 -2.405
289.388	  0.230	 -2.520
289.392	  0.245	 -2.570
289.396	  0.265	 -2.600
289.400	  0.260	 -2.595
289.404	  0.235	 -2.605
289.408	  0.200	 -2.570
289.412	  0.105	 -2.485
289.416	  0.060	 -2.365
289.420	  0.060	 -2.210
289.424	  0.160	 -2.100
289.428	  0.250	 -2.040
289.432	  0.295	 -1.980
289.436	  0.205	 -1.850
289.440	  0.045	 -1.615
289.444	 -0.135	 -1.350
289.448	 -0.235	 -1.035
289.452	 -0.295	 -0.785
289.456	 -0.295	 -0.610
289.460	 -0.285	 -0.525
289.464	 -0.325	 -0.400
289.468	 -0.380	 -0.280
289.472	 -0.425	 -0.150
289.476	 -0.435	  0.005
289.480	 -0.455	  0.100
289.484	 -0.415	  0.145
289.488	 -0.415	  0.155
289.492	 -0.430	  0.135
289.496	 -0.410	  0.140
289.500	 -0.405	  0.155
289.504	 -0.410	  0.140
289.508	 -0.455	  0.155
289.512	 -0.430	  0.170
289.516	 -0.445	  0.185
289.520	 -0.440	  0.170
289.524	 -0.430	  0.180
289.528	 -0.445	  0.175
289.532	 -0.410	  0.175
289.536	 -0.435	  0.200
289.540	 -0.440	  0.190
289.544	 -0.440	  0.215
289.548	 -0.440	  0.205
289.552	 -0.455	  0.205
289.556	 -0.465	  0.230
289.560	 -0.465	  0.225
289.564	 -0.445	  0.205
289.568	 -0.460	  0.230
289.572	 -0.455	  0.245
289.576	 -0.480	  0.255
289.580	 -0.480	  0.280
289.584	 -0.490	  0.295
289.588	 -0.470	  0.280
289.592	 -0.500	  0.295
289.596	 -0.500	  0.305
289.600	 -0.495	  0.315
289.604	 -0.515	  0.325
289.608	 -0.520	  0.345
289.612	 -0.540	  0.350
289.616	 -0.530	  0.370
289.620	 -0.525	  0.390
289.624	 -0.535	  0.390
289.628	 -0.540	  0.415
289.632	 -0.555	  0.440
289.636	 -0.540	  0.470
289.640	 -0.545	  0.480
289.644	 -0.550	  0.465
289.648	 -0.555	  0.500
289.652	 -0.565	  0.520
289.656	 -0.590	  0.545
289.660	 -0.565	  0.565
289.664	 -0.570	  0.590
289.668	 -0.565	  0.600
289.672	 -0.545	  0.610
289.676	 -0.555	  0.625
289.680	 -0.575	  0.645
289.684	 -0.565	  0.660
289.688	 -0.555	  0.655
289.692	 -0.560	  0.675
289.696	 -0.555	  0.685
289.700	 -0.530	  0.700
289.704	 -0.540	  0.705
289.708	 -0.530	  0.710
289.712	 -0.535	  0.715
289.716	 -0.540	  0.715
289.720	 -0.550	  0.690
289.724	 -0.525	  0.715
289.728	 -0.505	  0.705
289.732	 -0.515	  0.735
289.736	 -0.485	  0.715
289.740	 -0.450	  0.680
289.744	 -0.445	  0.660
289.748	 -0.445	  0.650
289.752	 -0.440	  0.610
289.756	 -0.410	  0.590
289.760	 -0.415	  0.540
289.764	 -0.400	  0.505
289.768	 -0.390	  0.470
289.772	 -0.375	  0.455
289.776	 -0.370	  0.400
289.780	 -0.365	  0.350
289.784	 -0.385	  0.300
289.788	 -0.370	  0.285
289.792	 -0.375	  0.225
289.796	 -0.365	  0.195
289.800	 -0.405	  0.155
289.804	 -0.400	  0.110
289.808	 -0.395	  0.100
289.812	 -0.380	  0.055
289.816	 -0.385	  0.025
289.820	 -0.385	  0.010
289.824	 -0.385	  0.000
289.828	 -0.385	 -0.040
289.832	 -0.385	 -0.035
289.836	 -0.400	 -0.045
289.840	 -0.425	 -0.050
289.844	 -0.425	 -0.055
289.848	 -0.425	 -0.030
289.852	 -0.410	 -0.050
289.856	 -0.405	 -0.075
289.860	 -0.410	 -0.075
289.864	 -0.420	 -0.060
289.868	 -0.425	 -0.055
289.872	 -0.455	 -0.065
289.876	 -0.460	 -0.040
289.880	 -0.455	 -0.045
289.884	 -0.440	 -0.050
289.888	 -0.445	 -0.050
289.892	 -0.445	 -0.025
289.896	 -0.420	 -0.040
289.900	 -0.435	 -0.040
289.904	 -0.455	 -0.035
289.908	 -0.460	 -0.020
289.912	 -0.450	 -0.020
289.916	 -0.450	 -0.015
289.920	 -0.450	 -0.020
289.924	 -0.450	 -0.030
289.928	 -0.450	 -0.035
289.932	 -0.445	 -0.035
289.936	 -0.435	 -0.045
289.940	 -0.435	 -0.025
289.944	 -0.460	 -0.015
289.948	 -0.460	 -0.025
289.952	 -0.470	 -0.045
289.956	 -0.465	 -0.030
289.960	 -0.450	 -0.045
289.964	 -0.430	 -0.050
289.968	 -0.420	 -0.060
289.972	 -0.440	 -0.080
289.976	 -0.445	 -0.080
289.980	 -0.435	 -0.060
289.984	 -0.440	 -0.070
289.988	 -0.445	 -0.045
289.992	 -0.435	 -0.070
289.996	 -0.445	 -0.060
290.000	 -0.435	 -0.070
240.000	  0.050	  0.135
240.004	  0.050	  0.135
240.008	  0.055	  0.135
240.012	  0.055	  0.130
240.016	  0.040	  0.130
240.020	  0.040	  0.130
240.024	  0.040	  0.130
240.028	  0.040	  0.130
240.032	  0.040	  0.130
240.036	  0.045	  0.130
240.040	  0.045	  0.130
240.044	  0.045	  0.130
240.048	  0.050	  0.130
240.052	  0.050	  0.130
240.056	  0.055	  0.130
240.060	  0.060	  0.130
240.064	  0.055	  0.130
240.068	  0.055	  0.130
240.072	  0.055	  0.130
240.076	  0.055	  0.130
240.080	  0.050	  0.130
240.084	  0.050	  0.125
240.088	  0.055	  0.125
240.092	  0.050	  0.130
240.096	  0.050	  0.140
240.100	  0.050	  0.150
240.104	  0.075	  0.180
240.108	  0.090	  0.200
240.112	  0.100	  0.215
240.116	  0.100	  0.215
240.120	  0.100	  0.220
240.124	  0.100	  0.240
240.128	  0.115	  0.265
240.132	  0.155	  0.280
240.136	  0.185	  0.285
240.140	  0.200	  0.265
240.144	  0.200	  0.230
240.148	  0.200	  0.200
240.152	  0.190	  0.190
240.156	  0.190	  0.175
240.160	  0.180	  0.160
240.164	  0.150	  0.145
240.168	  0.120	  0.145
240.172	  0.095	  0.145
240.176	  0.090	  0.145
240.180	  0.080	  0.145
240.184	  0.070	  0.150
240.188	  0.065	  0.150
240.192	  0.060	  0.145
240.196	  0.050	  0.140
240.200	  0.050	  0.140
240.204	  0.050	  0.135
240.208	  0.045	  0.130
240.212	  0.045	  0.125
240.216	  0.035	  0.120
240.220	  0.025	  0.120
240.224	  0.025	  0.120
240.228	  0.025	  0.120
240.232	  0.025	  0.120
240.236	  0.025	  0.120
240.240	  0.030	  0.115
240.244	  0.025	  0.110
240.248	  0.020	  0.110
240.252	  0.005	  0.105
240.256	 -0.030	  0.095
240.260	 -0.065	  0.095
240.264	 -0.070	  0.090
240.268	  0.000	  0.085
240.272	  0.190	  0.045
240.276	  0.480	 -0.035
240.280	  0.860	 -0.105
240.284	  1.275	 -0.120
240.288	  1.605	 -0.040
240.292	  1.740	  0.125
240.296	  1.560	  0.300
240.300	  1.050	  0.415
240.304	  0.430	  0.445
240.308	 -0.055	  0.420
240.312	 -0.285	  0.365
240.316	 -0.330	  0.345
240.320	 -0.315	  0.370
240.324	 -0.295	  0.435
240.328	 -0.290	  0.495
240.332	 -0.290	  0.525
240.336	 -0.285	  0.545
240.340	 -0.285	  0.575
240.344	 -0.285	  0.615
240.348	 -0.285	  0.645
240.352	 -0.280	  0.645
240.356	 -0.275	  0.630
240.360	 -0.260	  0.595
240.364	 -0.210	  0.545
240.368	 -0.155	  0.490
240.372	 -0.105	  0.415
240.376	 -0.065	  0.330
240.380	 -0.045	  0.260
240.384	 -0.025	  0.215
240.388	 -0.015	  0.170
240.392	  0.000	  0.145
240.396	  0.005	  0.130
240.400	  0.025	  0.125
240.404	  0.040	  0.120
240.408	  0.055	  0.120
240.412	  0.055	  0.115
240.416	  0.060	  0.105
240.420	  0.070	  0.090
240.424	  0.075	  0.080
240.428	  0.075	  0.075
240.432	  0.080	  0.080
240.436	  0.080	  0.075
240.440	  0.085	  0.080
240.444	  0.085	  0.080
240.448	  0.090	  0.080
240.452	  0.090	  0.075
240.456	  0.090	  0.075
240.460	  0.105	  0.075
240.464	  0.110	  0.080
240.468	  0.120	  0.080
240.472	  0.125	  0.075
240.476	  0.120	  0.075
240.480	  0.110	  0.075
240.484	  0.115	  0.070
240.488	  0.130	  0.065
240.492	  0.145	  0.065
240.496	  0.155	  0.060
240.500	  0.170	  0.060
240.504	  0.175	  0.060
240.508	  0.195	  0.050
240.512	  0.200	  0.035
240.516	  0.205	  0.035
240.520	  0.200	  0.020
240.524	  0.205	  0.015
240.528	  0.205	  0.015
240.532	  0.195	  0.010
240.536	  0.225	  0.000
240.540	  0.240	 -0.005
240.544	  0.265	 -0.030
240.548	  0.285	 -0.035
240.552	  0.295	 -0.060
240.556	  0.300	 -0.065
240.560	  0.320	 -0.070
240.564	  0.320	 -0.070
240.568	  0.350	 -0.075
240.572	  0.380	 -0.085
240.576	  0.405	 -0.085
240.580	  0.405	 -0.090
240.584	  0.410	 -0.095
240.588	  0.410	 -0.095
240.592	  0.410	 -0.100
240.596	  0.415	 -0.105
240.600	  0.415	 -0.125
240.604	  0.405	 -0.135
240.608	  0.385	 -0.140
240.612	  0.365	 -0.125
240.616	  0.360	 -0.100
240.620	  0.355	 -0.080
240.624	  0.360	 -0.075
240.628	  0.350	 -0.075
240.632	  0.320	 -0.070
240.636	  0.280	 -0.060
240.640	  0.245	 -0.030
240.644	  0.230	  0.005
240.648	  0.230	  0.035
240.652	  0.235	  0.045
240.656	  0.235	  0.045
240.660	  0.210	  0.050
240.664	  0.205	  0.060
240.668	  0.200	  0.065
240.672	  0.190	  0.070
240.676	  0.155	  0.065
240.680	  0.105	  0.055
240.684	  0.090	  0.055
240.688	  0.090	  0.075
240.692	  0.095	  0.095
240.696	  0.105	  0.110
240.700	  0.105	  0.110
240.704	  0.100	  0.100
240.708	  0.100	  0.080
240.712	  0.105	  0.075
240.716	  0.105	  0.070
240.720	  0.110	  0.070
240.724	  0.110	  0.075
240.728	  0.115	  0.075
240.732	  0.115	  0.075
240.736	  0.115	  0.070
240.740	  0.115	  0.070
240.744	  0.115	  0.070
240.748	  0.110	  0.075
240.752	  0.110	  0.075
240.756	  0.115	  0.075
240.760	  0.105	  0.065
240.764	  0.095	  0.060
240.768	  0.085	  0.055
240.772	  0.085	  0.060
240.776	  0.090	  0.080
240.780	  0.090	  0.085
240.784	  0.085	  0.075
240.788	  0.075	  0.055
240.792	  0.065	  0.045
240.796	  0.065	  0.045
240.800	  0.070	  0.045
240.804	  0.070	  0.045
240.808	  0.070	  0.045
240.812	  0.070	  0.045
240.816	  0.065	  0.045
240.820	  0.060	  0.040
240.824	  0.055	  0.040
240.828	  0.055	  0.040
240.832	  0.055	  0.045
240.836	  0.060	  0.045
240.840	  0.055	  0.045
240.844	  0.045	  0.040
240.848	  0.035	  0.030
240.852	  0.025	  0.015
240.856	  0.015	  0.010
240.860	  0.015	  0.010
240.864	  0.020	  0.010
240.868	  0.035	  0.020
240.872	  0.050	  0.040
240.876	  0.060	  0.045
240.880	  0.060	  0.050
240.884	  0.050	  0.045
240.888	  0.030	  0.030
240.892	  0.020	  0.010
240.896	  0.010	  0.010
240.900	  0.015	  0.015
240.904	  0.015	  0.045
240.908	  0.010	  0.070
240.912	  0.015	  0.075
240.916	  0.025	  0.040
240.920	  0.045	  0.025
240.924	  0.040	  0.020
240.928	  0.015	  0.020
240.932	 -0.005	  0.020
240.936	  0.000	  0.020
240.940	  0.005	  0.025
240.944	  0.010	  0.025
240.948	  0.010	  0.010
240.952	 -0.005	  0.000
240.956	  0.000	  0.000
240.960	  0.000	  0.000
240.964	  0.000	  0.000
240.968	  0.015	  0.010
240.972	  0.035	  0.010
240.976	  0.040	  0.010
240.980	  0.045	  0.010
240.984	  0.055	  0.010
240.988	  0.055	  0.020
240.992	  0.040	  0.015
240.996	  0.005	 -0.010
241.000	 -0.010	 -0.040
241.004	 -0.020	 -0.050
241.008	 -0.030	 -0.050
241.012	 -0.040	 -0.050
241.016	 -0.045	 -0.050
241.020	 -0.035	 -0.045
241.024	 -0.030	 -0.010
241.028	  0.015	  0.035
241.032	  0.060	  0.085
241.036	  0.095	  0.120
241.040	  0.105	  0.130
241.044	  0.110	  0.125
241.048	  0.090	  0.100
241.052	  0.060	  0.080
241.056	  0.055	  0.070
241.060	  0.055	  0.075
241.064	  0.115	  0.100
241.068	  0.145	  0.110
241.072	  0.150	  0.090
241.076	  0.125	  0.030
241.080	  0.100	 -0.005
241.084	  0.100	 -0.010
241.088	  0.095	 -0.015
241.092	  0.090	 -0.020
241.096	  0.065	 -0.045
241.100	  0.015	 -0.075
241.104	 -0.010	 -0.085
241.108	 -0.010	 -0.085
241.112	 -0.010	 -0.065
241.116	 -0.020	 -0.050
241.120	 -0.025	 -0.035
241.124	 -0.025	 -0.025
241.128	 -0.020	 -0.020
241.132	 -0.015	 -0.025
241.136	 -0.020	 -0.065
241.140	 -0.040	 -0.100
241.144	 -0.050	 -0.110
241.148	 -0.050	 -0.090
241.152	 -0.045	 -0.055
241.156	 -0.035	 -0.035
241.160	 -0.035	 -0.040
241.164	 -0.035	 -0.045
241.168	 -0.040	 -0.045
241.172	 -0.035	 -0.045
241.176	 -0.045	 -0.050
241.180	 -0.120	 -0.055
241.184	 -0.185	 -0.060
241.188	 -0.195	 -0.065
241.192	 -0.105	 -0.060
241.196	  0.075	 -0.060
241.200	  0.325	 -0.120
241.204	  0.650	 -0.220
241.208	  1.050	 -0.270
241.212	  1.430	 -0.245
241.216	  1.615	 -0.125
241.220	  1.530	  0.030
241.224	  1.100	  0.150
241.228	  0.460	  0.190
241.232	 -0.100	  0.170
241.236	 -0.415	  0.145
241.240	 -0.485	  0.160
241.244	 -0.420	  0.230
241.248	 -0.345	  0.300
241.252	 -0.330	  0.330
241.256	 -0.345	  0.340
241.260	 -0.360	  0.350
241.264	 -0.365	  0.370
241.268	 -0.370	  0.415
241.272	 -0.370	  0.460
241.276	 -0.360	  0.480
241.280	 -0.345	  0.475
241.284	 -0.330	  0.440
241.288	 -0.305	  0.395
241.292	 -0.260	  0.355
241.296	 -0.210	  0.300
241.300	 -0.160	  0.225
241.304	 -0.130	  0.130
241.308	 -0.115	  0.040
241.312	 -0.095	 -0.030
241.316	 -0.080	 -0.080
241.320	 -0.075	 -0.105
241.324	 -0.060	 -0.110
241.328	 -0.050	 -0.115
241.332	 -0.040	 -0.120
241.336	 -0.035	 -0.130
241.340	 -0.020	 -0.135
241.344	 -0.005	 -0.140
241.348	 -0.005	 -0.135
241.352	 -0.005	 -0.140
241.356	  0.000	 -0.145
241.360	  0.000	 -0.145
241.364	 -0.005	 -0.145
241.368	 -0.005	 -0.150
241.372	  0.000	 -0.150
241.376	  0.000	 -0.150
241.380	  0.000	 -0.155
241.384	  0.010	 -0.155
241.388	  0.010	 -0.155
241.392	  0.015	 -0.155
241.396	  0.025	 -0.150
241.400	  0.025	 -0.155
241.404	  0.025	 -0.155
241.408	  0.030	 -0.155
241.412	  0.030	 -0.165
241.416	  0.030	 -0.170
241.420	  0.040	 -0.175
241.424	  0.040	 -0.175
241.428	  0.040	 -0.175
241.432	  0.055	 -0.185
241.436	  0.065	 -0.185
241.440	  0.080	 -0.195
241.444	  0.080	 -0.195
241.448	  0.095	 -0.205
241.452	  0.105	 -0.215
241.456	  0.110	 -0.220
241.460	  0.125	 -0.225
241.464	  0.135	 -0.240
241.468	  0.150	 -0.260
241.472	  0.155	 -0.270
241.476	  0.175	 -0.280
241.480	  0.190	 -0.280
241.484	  0.200	 -0.285
241.488	  0.220	 -0.290
241.492	  0.225	 -0.300
241.496	  0.230	 -0.335
241.500	  0.230	 -0.350
241.504	  0.245	 -0.350
241.508	  0.250	 -0.360
241.512	  0.255	 -0.370
241.516	  0.255	 -0.380
241.520	  0.255	 -0.380
241.524	  0.260	 -0.385
241.528	  0.265	 -0.385
241.532	  0.265	 -0.385
241.536	  0.260	 -0.380
241.540	  0.240	 -0.370
241.544	  0.240	 -0.340
241.548	  0.240	 -0.315
241.552	  0.210	 -0.295
241.556	  0.210	 -0.285
241.560	  0.180	 -0.275
241.564	  0.145	 -0.270
241.568	  0.105	 -0.265
241.572	  0.070	 -0.240
241.576	  0.060	 -0.210
241.580	  0.060	 -0.195
241.584	  0.055	 -0.185
241.588	  0.040	 -0.185
241.592	  0.015	 -0.190
241.596	  0.000	 -0.190
241.600	 -0.005	 -0.180
241.604	 -0.005	 -0.175
241.608	 -0.010	 -0.175
241.612	 -0.030	 -0.175
241.616	 -0.035	 -0.180
241.620	 -0.040	 -0.180
241.624	 -0.045	 -0.170
241.628	 -0.040	 -0.170
241.632	 -0.040	 -0.165
241.636	 -0.045	 -0.170
241.640	 -0.045	 -0.180
241.644	 -0.045	 -0.175
241.648	 -0.045	 -0.175
241.652	 -0.035	 -0.175
241.656	 -0.040	 -0.180
241.660	 -0.045	 -0.180
241.664	 -0.050	 -0.180
241.668	 -0.050	 -0.175
241.672	 -0.055	 -0.180
241.676	 -0.050	 -0.175
241.680	 -0.050	 -0.175
241.684	 -0.045	 -0.170
241.688	 -0.055	 -0.175
241.692	 -0.060	 -0.175
241.696	 -0.065	 -0.175
241.700	 -0.065	 -0.170
241.704	 -0.065	 -0.165
241.708	 -0.070	 -0.175
241.712	 -0.075	 -0.185
241.716	 -0.085	 -0.190
241.720	 -0.090	 -0.190
241.724	 -0.090	 -0.185
241.728	 -0.090	 -0.180
241.732	 -0.090	 -0.195
241.736	 -0.100	 -0.210
241.740	 -0.115	 -0.215
241.744	 -0.115	 -0.210
241.748	 -0.110	 -0.215
241.752	 -0.110	 -0.215
241.756	 -0.115	 -0.210
241.760	 -0.120	 -0.210
241.764	 -0.115	 -0.195
241.768	 -0.115	 -0.190
241.772	 -0.120	 -0.190
241.776	 -0.125	 -0.210
241.780	 -0.135	 -0.230
241.784	 -0.150	 -0.230
241.788	 -0.155	 -0.225
241.792	 -0.145	 -0.220
241.796	 -0.140	 -0.220
241.800	 -0.135	 -0.220
241.804	 -0.135	 -0.220
241.808	 -0.135	 -0.210
241.812	 -0.130	 -0.200
241.816	 -0.125	 -0.200
241.820	 -0.125	 -0.205
241.824	 -0.130	 -0.200
241.828	 -0.130	 -0.200
241.832	 -0.130	 -0.200
241.836	 -0.130	 -0.205
241.840	 -0.125	 -0.200
241.844	 -0.110	 -0.180
241.848	 -0.085	 -0.170
241.852	 -0.085	 -0.170
241.856	 -0.095	 -0.175
241.860	 -0.100	 -0.185
241.864	 -0.115	 -0.190
241.868	 -0.135	 -0.205
241.872	 -0.160	 -0.220
241.876	 -0.155	 -0.220
241.880	 -0.150	 -0.205
241.884	 -0.135	 -0.165
241.888	 -0.125	 -0.135
241.892	 -0.115	 -0.135
241.896	 -0.110	 -0.140
241.900	 -0.110	 -0.130
241.904	 -0.105	 -0.110
241.908	 -0.085	 -0.085
241.912	 -0.050	 -0.075
241.916	 -0.025	 -0.065
241.920	 -0.010	 -0.060
241.924	  0.010	 -0.065
241.928	  0.000	 -0.085
241.932	  0.000	 -0.100
241.936	  0.000	 -0.120
241.940	 -0.005	 -0.135
241.944	 -0.005	 -0.140
241.948	 -0.025	 -0.150
241.952	 -0.050	 -0.155
241.956	 -0.065	 -0.155
241.960	 -0.090	 -0.155
241.964	 -0.120	 -0.155
241.968	 -0.145	 -0.165
241.972	 -0.185	 -0.205
241.976	 -0.190	 -0.215
241.980	 -0.190	 -0.225
241.984	 -0.190	 -0.225
241.988	 -0.185	 -0.225
241.992	 -0.180	 -0.230
241.996	 -0.195	 -0.230
242.000	 -0.185	 -0.235
242.004	 -0.185	 -0.220
242.008	 -0.175	 -0.200
242.012	 -0.175	 -0.205
242.016	 -0.175	 -0.205
242.020	 -0.180	 -0.205
242.024	 -0.165	 -0.205
242.028	 -0.170	 -0.205
242.032	 -0.185	 -0.210
242.036	 -0.215	 -0.210
242.040	 -0.275	 -0.205
242.044	 -0.280	 -0.200
242.048	 -0.245	 -0.195
242.052	 -0.035	 -0.180
242.056	  0.325	 -0.180
242.060	  0.800	 -0.195
242.064	  1.300	 -0.210
242.068	  1.755	 -0.205
242.072	  1.995	 -0.135
242.076	  1.925	 -0.055
242.080	  1.370	  0.005
242.084	  0.560	  0.035
242.088	 -0.165	  0.040
242.092	 -0.540	  0.030
242.096	 -0.615	  0.030
242.100	 -0.555	  0.075
242.104	 -0.500	  0.150
242.108	 -0.490	  0.215
242.112	 -0.505	  0.235
242.116	 -0.540	  0.235
242.120	 -0.540	  0.255
242.124	 -0.555	  0.300
242.128	 -0.550	  0.330
242.132	 -0.550	  0.335
242.136	 -0.555	  0.340
242.140	 -0.545	  0.330
242.144	 -0.490	  0.300
242.148	 -0.425	  0.260
242.152	 -0.370	  0.195
242.156	 -0.310	  0.110
242.160	 -0.265	  0.020
242.164	 -0.245	 -0.050
242.168	 -0.235	 -0.110
242.172	 -0.215	 -0.150
242.176	 -0.200	 -0.180
242.180	 -0.175	 -0.195
242.184	 -0.160	 -0.205
242.188	 -0.160	 -0.210
242.192	 -0.155	 -0.205
242.196	 -0.155	 -0.210
242.200	 -0.150	 -0.215
242.204	 -0.140	 -0.215
242.208	 -0.140	 -0.215
242.212	 -0.130	 -0.215
242.216	 -0.125	 -0.230
242.220	 -0.125	 -0.245
242.224	 -0.120	 -0.250
242.228	 -0.100	 -0.235
242.232	 -0.075	 -0.230
242.236	 -0.075	 -0.245
242.240	 -0.075	 -0.270
242.244	 -0.080	 -0.290
242.248	 -0.090	 -0.290
242.252	 -0.090	 -0.275
242.256	 -0.075	 -0.265
242.260	 -0.060	 -0.260
242.264	 -0.050	 -0.260
242.268	 -0.045	 -0.260
242.272	 -0.040	 -0.260
242.276	 -0.030	 -0.260
242.280	 -0.035	 -0.265
242.284	 -0.025	 -0.270
242.288	 -0.010	 -0.275
242.292	  0.000	 -0.275
242.296	  0.020	 -0.280
242.300	  0.045	 -0.285
242.304	  0.065	 -0.285
242.308	  0.085	 -0.285
242.312	  0.100	 -0.300
242.316	  0.115	 -0.325
242.320	  0.125	 -0.340
242.324	  0.125	 -0.350
242.328	  0.145	 -0.355
242.332	  0.165	 -0.355
242.336	  0.175	 -0.365
242.340	  0.185	 -0.380
242.344	  0.190	 -0.390
242.348	  0.200	 -0.395
242.352	  0.220	 -0.410
242.356	  0.240	 -0.415
242.360	  0.265	 -0.415
242.364	  0.280	 -0.415
242.368	  0.290	 -0.410
242.372	  0.290	 -0.405
242.376	  0.290	 -0.410
242.380	  0.285	 -0.405
242.384	  0.270	 -0.390
242.388	  0.260	 -0.375
242.392	  0.225	 -0.370
242.396	  0.205	 -0.365
242.400	  0.190	 -0.350
242.404	  0.165	 -0.340
242.408	  0.125	 -0.335
242.412	  0.080	 -0.315
242.416	  0.070	 -0.295
242.420	  0.045	 -0.285
242.424	  0.025	 -0.285
242.428	  0.000	 -0.285
242.432	 -0.015	 -0.275
242.436	 -0.030	 -0.245
242.440	 -0.040	 -0.230
242.444	 -0.040	 -0.225
242.448	 -0.060	 -0.220
242.452	 -0.060	 -0.220
242.456	 -0.080	 -0.210
242.460	 -0.095	 -0.200
242.464	 -0.100	 -0.200
242.468	 -0.110	 -0.200
242.472	 -0.120	 -0.210
242.476	 -0.110	 -0.205
242.480	 -0.100	 -0.200
242.484	 -0.095	 -0.200
242.488	 -0.095	 -0.205
242.492	 -0.105	 -0.200
242.496	 -0.105	 -0.205
242.500	 -0.110	 -0.205
242.504	 -0.115	 -0.200
242.508	 -0.115	 -0.200
242.512	 -0.115	 -0.200
242.516	 -0.115	 -0.200
242.520	 -0.115	 -0.195
242.524	 -0.105	 -0.195
242.528	 -0.095	 -0.195
242.532	 -0.095	 -0.210
242.536	 -0.095	 -0.215
242.540	 -0.095	 -0.215
242.544	 -0.100	 -0.220
242.548	 -0.100	 -0.210
242.552	 -0.090	 -0.205
242.556	 -0.095	 -0.205
242.560	 -0.110	 -0.210
242.564	 -0.125	 -0.215
242.568	 -0.130	 -0.220
242.572	 -0.125	 -0.220
242.576	 -0.120	 -0.230
242.580	 -0.120	 -0.235
242.584	 -0.135	 -0.235
242.588	 -0.155	 -0.235
242.592	 -0.160	 -0.230
242.596	 -0.165	 -0.230
242.600	 -0.175	 -0.235
242.604	 -0.180	 -0.235
242.608	 -0.170	 -0.240
242.612	 -0.170	 -0.235
242.616	 -0.165	 -0.235
242.620	 -0.165	 -0.230
242.624	 -0.165	 -0.240
242.628	 -0.160	 -0.245
242.632	 -0.160	 -0.245
242.636	 -0.160	 -0.240
242.640	 -0.165	 -0.240
242.644	 -0.160	 -0.240
242.648	 -0.160	 -0.240
242.652	 -0.160	 -0.240
242.656	 -0.160	 -0.240
242.660	 -0.165	 -0.240
242.664	 -0.170	 -0.240
242.668	 -0.175	 -0.240
242.672	 -0.175	 -0.230
242.676	 -0.170	 -0.220
242.680	 -0.170	 -0.220
242.684	 -0.170	 -0.220
242.688	 -0.180	 -0.225
242.692	 -0.190	 -0.230
242.696	 -0.180	 -0.225
242.700	 -0.155	 -0.215
242.704	 -0.115	 -0.200
242.708	 -0.105	 -0.195
242.712	 -0.105	 -0.185
242.716	 -0.095	 -0.170
242.720	 -0.100	 -0.150
242.724	 -0.105	 -0.135
242.728	 -0.105	 -0.130
242.732	 -0.095	 -0.130
242.736	 -0.070	 -0.130
242.740	 -0.040	 -0.130
242.744	 -0.035	 -0.130
242.748	 -0.035	 -0.130
242.752	 -0.035	 -0.130
242.756	 -0.045	 -0.135
242.760	 -0.040	 -0.150
242.764	 -0.040	 -0.160
242.768	 -0.050	 -0.180
242.772	 -0.085	 -0.200
242.776	 -0.120	 -0.215
242.780	 -0.140	 -0.225
242.784	 -0.165	 -0.220
242.788	 -0.190	 -0.215
242.792	 -0.200	 -0.210
242.796	 -0.200	 -0.215
242.800	 -0.200	 -0.215
242.804	 -0.195	 -0.210
242.808	 -0.195	 -0.210
242.812	 -0.205	 -0.225
242.816	 -0.205	 -0.245
242.820	 -0.190	 -0.250
242.824	 -0.160	 -0.250
242.828	 -0.165	 -0.265
242.832	 -0.200	 -0.315
242.836	 -0.230	 -0.345
242.840	 -0.235	 -0.335
242.844	 -0.225	 -0.310
242.848	 -0.215	 -0.290
242.852	 -0.225	 -0.295
242.856	 -0.260	 -0.310
242.860	 -0.290	 -0.305
242.864	 -0.255	 -0.260
242.868	 -0.105	 -0.200
242.872	  0.170	 -0.175
242.876	  0.555	 -0.170
242.880	  0.995	 -0.175
242.884	  1.440	 -0.170
242.888	  1.770	 -0.165
242.892	  1.870	 -0.155
242.896	  1.645	 -0.125
242.900	  1.035	 -0.070
242.904	  0.275	 -0.050
242.908	 -0.350	 -0.045
242.912	 -0.640	 -0.075
242.916	 -0.645	 -0.090
242.920	 -0.580	 -0.065
242.924	 -0.505	  0.025
242.928	 -0.505	  0.095
242.932	 -0.535	  0.130
242.936	 -0.570	  0.145
242.940	 -0.580	  0.155
242.944	 -0.580	  0.195
242.948	 -0.570	  0.230
242.952	 -0.575	  0.250
242.956	 -0.575	  0.250
242.960	 -0.590	  0.210
242.964	 -0.585	  0.155
242.968	 -0.550	  0.125
242.972	 -0.485	  0.105
242.976	 -0.395	  0.035
242.980	 -0.330	 -0.060
242.984	 -0.305	 -0.135
242.988	 -0.305	 -0.170
242.992	 -0.305	 -0.175
242.996	 -0.300	 -0.180
243.000	 -0.295	 -0.205
243.004	 -0.255	 -0.225
243.008	 -0.205	 -0.235
243.012	 -0.195	 -0.250
243.016	 -0.190	 -0.255
243.020	 -0.185	 -0.270
243.024	 -0.185	 -0.305
243.028	 -0.155	 -0.315
243.032	 -0.140	 -0.315
243.036	 -0.135	 -0.300
243.040	 -0.130	 -0.285
243.044	 -0.130	 -0.285
243.048	 -0.135	 -0.310
243.052	 -0.135	 -0.320
243.056	 -0.115	 -0.310
243.060	 -0.095	 -0.290
243.064	 -0.080	 -0.285
243.068	 -0.085	 -0.295
243.072	 -0.095	 -0.310
243.076	 -0.085	 -0.315
243.080	 -0.085	 -0.310
243.084	 -0.085	 -0.305
243.088	 -0.075	 -0.305
243.092	 -0.075	 -0.310
243.096	 -0.080	 -0.305
243.100	 -0.060	 -0.305
243.104	 -0.075	 -0.310
243.108	 -0.060	 -0.315
243.112	 -0.020	 -0.320
243.116	  0.005	 -0.320
243.120	  0.010	 -0.345
243.124	  0.025	 -0.365
243.128	  0.020	 -0.380
243.132	  0.025	 -0.385
243.136	  0.025	 -0.390
243.140	  0.040	 -0.395
243.144	  0.055	 -0.400
243.148	  0.060	 -0.395
243.152	  0.070	 -0.395
243.156	  0.095	 -0.425
243.160	  0.120	 -0.445
243.164	  0.140	 -0.455
243.168	  0.155	 -0.450
243.172	  0.165	 -0.455
243.176	  0.165	 -0.460
243.180	  0.180	 -0.465
243.184	  0.255	 -0.460
243.188	  0.305	 -0.440
243.192	  0.290	 -0.420
243.196	  0.230	 -0.415
243.200	  0.160	 -0.435
243.204	  0.110	 -0.455
243.208	  0.085	 -0.455
243.212	  0.055	 -0.450
243.216	  0.025	 -0.440
243.220	  0.005	 -0.440
243.224	 -0.005	 -0.435
243.228	 -0.020	 -0.415
243.232	 -0.050	 -0.385
243.236	 -0.095	 -0.360
243.240	 -0.125	 -0.355
243.244	 -0.130	 -0.345
243.248	 -0.130	 -0.325
243.252	 -0.130	 -0.305
243.256	 -0.135	 -0.290
243.260	 -0.135	 -0.265
243.264	 -0.135	 -0.240
243.268	 -0.130	 -0.220
243.272	 -0.130	 -0.200
243.276	 -0.120	 -0.190
243.280	 -0.110	 -0.185
243.284	 -0.105	 -0.185
243.288	 -0.105	 -0.190
243.292	 -0.115	 -0.210
243.296	 -0.120	 -0.225
243.300	 -0.120	 -0.235
243.304	 -0.135	 -0.240
243.308	 -0.130	 -0.225
243.312	 -0.110	 -0.195
243.316	 -0.100	 -0.175
243.320	 -0.080	 -0.190
243.324	 -0.080	 -0.225
243.328	 -0.065	 -0.240
243.332	  0.035	 -0.230
243.336	  0.280	 -0.200
243.340	  0.615	 -0.165
243.344	  0.965	 -0.170
243.348	  1.300	 -0.195
243.352	  1.590	 -0.235
243.356	  1.785	 -0.260
243.360	  1.795	 -0.210
243.364	  1.570	 -0.110
243.368	  1.010	 -0.040
243.372	  0.315	 -0.020
243.376	 -0.210	 -0.020
243.380	 -0.410	 -0.030
243.384	 -0.400	 -0.035
243.388	 -0.340	 -0.015
243.392	 -0.310	  0.035
243.396	 -0.330	  0.095
243.400	 -0.375	  0.130
243.404	 -0.405	  0.150
243.408	 -0.415	  0.175
243.412	 -0.450	  0.230
243.416	 -0.480	  0.285
243.420	 -0.490	  0.295
243.424	 -0.495	  0.285
243.428	 -0.465	  0.225
243.432	 -0.425	  0.170
243.436	 -0.365	  0.135
243.440	 -0.290	  0.080
243.444	 -0.225	 -0.010
243.448	 -0.185	 -0.095
243.452	 -0.160	 -0.140
243.456	 -0.145	 -0.160
243.460	 -0.125	 -0.190
243.464	 -0.095	 -0.220
243.468	 -0.085	 -0.245
243.472	 -0.090	 -0.260
243.476	 -0.090	 -0.270
243.480	 -0.090	 -0.270
243.484	 -0.085	 -0.270
243.488	 -0.080	 -0.270
243.492	 -0.070	 -0.275
243.496	 -0.065	 -0.275
243.500	 -0.065	 -0.275
243.504	 -0.050	 -0.280
243.508	 -0.050	 -0.280
243.512	 -0.045	 -0.280
243.516	 -0.040	 -0.280
243.520	 -0.020	 -0.285
243.524	 -0.015	 -0.280
243.528	 -0.010	 -0.280
243.532	 -0.010	 -0.285
243.536	 -0.010	 -0.285
243.540	  0.000	 -0.285
243.544	  0.020	 -0.290
243.548	  0.040	 -0.290
243.552	  0.065	 -0.290
243.556	  0.075	 -0.290
243.560	  0.075	 -0.300
243.564	  0.075	 -0.315
243.568	  0.135	 -0.320
243.572	  0.170	 -0.325
243.576	  0.195	 -0.335
243.580	  0.210	 -0.345
243.584	  0.250	 -0.365
243.588	  0.265	 -0.385
243.592	  0.290	 -0.400
243.596	  0.315	 -0.405
243.600	  0.340	 -0.405
243.604	  0.370	 -0.405
243.608	  0.390	 -0.415
243.612	  0.400	 -0.415
243.616	  0.425	 -0.425
243.620	  0.435	 -0.425
243.624	  0.445	 -0.430
243.628	  0.450	 -0.435
243.632	  0.435	 -0.435
243.636	  0.420	 -0.440
243.640	  0.395	 -0.435
243.644	  0.370	 -0.425
243.648	  0.345	 -0.420
243.652	  0.305	 -0.415
243.656	  0.260	 -0.405
243.660	  0.220	 -0.390
243.664	  0.180	 -0.370
243.668	  0.150	 -0.350
243.672	  0.120	 -0.350
243.676	  0.090	 -0.345
243.680	  0.060	 -0.335
243.684	  0.040	 -0.310
243.688	  0.025	 -0.285
243.692	  0.005	 -0.270
243.696	 -0.010	 -0.265
243.700	 -0.025	 -0.265
243.704	 -0.040	 -0.265
243.708	 -0.050	 -0.265
243.712	 -0.055	 -0.260
243.716	 -0.065	 -0.255
243.720	 -0.085	 -0.245
243.724	 -0.090	 -0.245
243.728	 -0.090	 -0.245
243.732	 -0.090	 -0.240
243.736	 -0.090	 -0.245
243.740	 -0.090	 -0.245
243.744	 -0.090	 -0.245
243.748	 -0.090	 -0.245
243.752	 -0.095	 -0.245
243.756	 -0.085	 -0.240
243.760	 -0.080	 -0.240
243.764	 -0.085	 -0.240
243.768	 -0.085	 -0.235
243.772	 -0.085	 -0.240
243.776	 -0.085	 -0.240
243.780	 -0.085	 -0.240
243.784	 -0.085	 -0.240
243.788	 -0.080	 -0.240
243.792	 -0.080	 -0.240
243.796	 -0.080	 -0.235
243.800	 -0.090	 -0.230
243.804	 -0.085	 -0.230
243.808	 -0.085	 -0.235
243.812	 -0.090	 -0.230
243.816	 -0.085	 -0.225
243.820	 -0.090	 -0.230
243.824	 -0.090	 -0.230
243.828	 -0.090	 -0.225
243.832	 -0.095	 -0.230
243.836	 -0.095	 -0.230
243.840	 -0.095	 -0.220
243.844	 -0.085	 -0.220
243.848	 -0.085	 -0.220
243.852	 -0.100	 -0.225
243.856	 -0.110	 -0.235
243.860	 -0.115	 -0.235
243.864	 -0.120	 -0.240
243.868	 -0.120	 -0.235
243.872	 -0.120	 -0.230
243.876	 -0.120	 -0.230
243.880	 -0.120	 -0.230
243.884	 -0.120	 -0.225
243.888	 -0.115	 -0.220
243.892	 -0.115	 -0.220
243.896	 -0.115	 -0.220
243.900	 -0.115	 -0.220
243.904	 -0.110	 -0.220
243.908	 -0.105	 -0.220
243.912	 -0.120	 -0.210
243.916	 -0.115	 -0.200
243.920	 -0.110	 -0.200
243.924	 -0.110	 -0.200
243.928	 -0.110	 -0.205
243.932	 -0.110	 -0.210
243.936	 -0.115	 -0.220
243.940	 -0.115	 -0.215
243.944	 -0.115	 -0.210
243.948	 -0.115	 -0.205
243.952	 -0.110	 -0.205
243.956	 -0.095	 -0.205
243.960	 -0.095	 -0.205
243.964	 -0.095	 -0.205
243.968	 -0.095	 -0.205
243.972	 -0.100	 -0.210
243.976	 -0.100	 -0.210
243.980	 -0.105	 -0.210
243.984	 -0.100	 -0.210
243.988	 -0.100	 -0.205
243.992	 -0.100	 -0.210
243.996	 -0.100	 -0.210
244.000	 -0.115	 -0.210
244.004	 -0.105	 -0.210
244.008	 -0.105	 -0.205
244.012	 -0.115	 -0.200
244.016	 -0.110	 -0.200
244.020	 -0.110	 -0.195
244.024	 -0.100	 -0.195
244.028	 -0.100	 -0.190
244.032	 -0.100	 -0.190
244.036	 -0.100	 -0.190
244.040	 -0.100	 -0.190
244.044	 -0.105	 -0.190
244.048	 -0.095	 -0.185
244.052	 -0.095	 -0.180
244.056	 -0.095	 -0.175
244.060	 -0.100	 -0.180
244.064	 -0.105	 -0.185
244.068	 -0.095	 -0.185
244.072	 -0.095	 -0.175
244.076	 -0.100	 -0.180
244.080	 -0.100	 -0.185
244.084	 -0.100	 -0.185
244.088	 -0.100	 -0.180
244.092	 -0.085	 -0.180
244.096	 -0.085	 -0.175
244.100	 -0.090	 -0.175
244.104	 -0.090	 -0.175
244.108	 -0.085	 -0.170
244.112	 -0.085	 -0.175
244.116	 -0.085	 -0.170
244.120	 -0.085	 -0.170
244.124	 -0.085	 -0.170
244.128	 -0.085	 -0.165
244.132	 -0.080	 -0.160
244.136	 -0.080	 -0.160
244.140	 -0.080	 -0.160
244.144	 -0.070	 -0.160
244.148	 -0.080	 -0.160
244.152	 -0.075	 -0.160
244.156	 -0.075	 -0.160
244.160	 -0.080	 -0.160
244.164	 -0.075	 -0.160
244.168	 -0.080	 -0.160
244.172	 -0.080	 -0.155
244.176	 -0.065	 -0.140
244.180	 -0.050	 -0.105
244.184	 -0.025	 -0.070
244.188	 -0.010	 -0.055
244.192	 -0.005	 -0.055
244.196	 -0.005	 -0.060
244.200	 -0.005	 -0.080
244.204	 -0.010	 -0.095
244.208	 -0.010	 -0.110
244.212	 -0.005	 -0.120
244.216	  0.005	 -0.130
244.220	  0.020	 -0.130
244.224	  0.025	 -0.125
244.228	  0.025	 -0.115
244.232	  0.025	 -0.105
244.236	  0.015	 -0.110
244.240	  0.010	 -0.115
244.244	  0.000	 -0.120
244.248	  0.000	 -0.125
244.252	 -0.005	 -0.130
244.256	 -0.015	 -0.125
244.260	 -0.020	 -0.125
244.264	 -0.035	 -0.130
244.268	 -0.050	 -0.130
244.272	 -0.055	 -0.125
244.276	 -0.045	 -0.125
244.280	 -0.045	 -0.130
244.284	 -0.060	 -0.135
244.288	 -0.075	 -0.140
244.292	 -0.075	 -0.145
244.296	 -0.080	 -0.145
244.300	 -0.080	 -0.145
244.304	 -0.090	 -0.145
244.308	 -0.095	 -0.145
244.312	 -0.090	 -0.150
244.316	 -0.090	 -0.150
244.320	 -0.090	 -0.145
244.324	 -0.080	 -0.145
244.328	 -0.085	 -0.145
244.332	 -0.120	 -0.135
244.336	 -0.165	 -0.115
244.340	 -0.175	 -0.075
244.344	 -0.090	 -0.050
244.348	  0.160	 -0.040
244.352	  0.585	 -0.070
244.356	  1.105	 -0.140
244.360	  1.630	 -0.190
244.364	  2.065	 -0.185
244.368	  2.265	 -0.135
244.372	  2.130	 -0.035
244.376	  1.530	  0.040
244.380	  0.655	  0.080
244.384	 -0.120	  0.085
244.388	 -0.530	  0.090
244.392	 -0.590	  0.125
244.396	 -0.510	  0.220
244.400	 -0.415	  0.320
244.404	 -0.410	  0.380
244.408	 -0.420	  0.390
244.412	 -0.445	  0.400
244.416	 -0.465	  0.410
244.420	 -0.465	  0.440
244.424	 -0.460	  0.470
244.428	 -0.455	  0.470
244.432	 -0.455	  0.440
244.436	 -0.430	  0.390
244.440	 -0.375	  0.355
244.444	 -0.300	  0.310
244.448	 -0.240	  0.245
244.452	 -0.175	  0.150
244.456	 -0.135	  0.070
244.460	 -0.115	  0.010
244.464	 -0.110	 -0.030
244.468	 -0.105	 -0.075
244.472	 -0.100	 -0.095
244.476	 -0.090	 -0.095
244.480	 -0.065	 -0.100
244.484	 -0.050	 -0.100
244.488	 -0.050	 -0.100
244.492	 -0.045	 -0.110
244.496	 -0.035	 -0.120
244.500	 -0.030	 -0.125
244.504	 -0.030	 -0.120
244.508	 -0.030	 -0.120
244.512	 -0.025	 -0.120
244.516	 -0.015	 -0.120
244.520	 -0.005	 -0.120
244.524	  0.000	 -0.130
244.528	  0.000	 -0.125
244.532	  0.000	 -0.125
244.536	  0.000	 -0.120
244.540	  0.000	 -0.120
244.544	  0.000	 -0.130
244.548	  0.005	 -0.135
244.552	  0.005	 -0.140
244.556	  0.015	 -0.145
244.560	  0.020	 -0.145
244.564	  0.025	 -0.140
244.568	  0.030	 -0.145
244.572	  0.055	 -0.145
244.576	  0.090	 -0.145
244.580	  0.105	 -0.145
244.584	  0.110	 -0.145
244.588	  0.115	 -0.155
244.592	  0.120	 -0.170
244.596	  0.130	 -0.175
244.600	  0.150	 -0.185
244.604	  0.170	 -0.195
244.608	  0.195	 -0.205
244.612	  0.220	 -0.210
244.616	  0.240	 -0.220
244.620	  0.270	 -0.225
244.624	  0.295	 -0.240
244.628	  0.325	 -0.245
244.632	  0.350	 -0.245
244.636	  0.380	 -0.250
244.640	  0.405	 -0.265
244.644	  0.415	 -0.280
244.648	  0.425	 -0.295
244.652	  0.440	 -0.305
244.656	  0.460	 -0.305
244.660	  0.485	 -0.305
244.664	  0.505	 -0.310
244.668	  0.520	 -0.315
244.672	  0.530	 -0.315
244.676	  0.535	 -0.315
244.680	  0.530	 -0.320
244.684	  0.530	 -0.315
244.688	  0.530	 -0.305
244.692	  0.530	 -0.290
244.696	  0.520	 -0.265
244.700	  0.500	 -0.245
244.704	  0.475	 -0.235
244.708	  0.440	 -0.225
244.712	  0.400	 -0.220
244.716	  0.365	 -0.210
244.720	  0.330	 -0.200
244.724	  0.290	 -0.190
244.728	  0.255	 -0.175
244.732	  0.225	 -0.160
244.736	  0.210	 -0.140
244.740	  0.195	 -0.130
244.744	  0.175	 -0.125
244.748	  0.155	 -0.125
244.752	  0.140	 -0.120
244.756	  0.130	 -0.110
244.760	  0.130	 -0.100
244.764	  0.120	 -0.085
244.768	  0.115	 -0.075
244.772	  0.110	 -0.070
244.776	  0.105	 -0.065
244.780	  0.100	 -0.065
244.784	  0.090	 -0.065
244.788	  0.080	 -0.055
244.792	  0.075	 -0.045
244.796	  0.075	 -0.035
244.800	  0.080	 -0.035
244.804	  0.080	 -0.040
244.808	  0.075	 -0.040
244.812	  0.070	 -0.040
244.816	  0.070	 -0.040
244.820	  0.070	 -0.040
244.824	  0.070	 -0.040
244.828	  0.070	 -0.040
244.832	  0.070	 -0.040
244.836	  0.070	 -0.045
244.840	  0.065	 -0.050
244.844	  0.065	 -0.055
244.848	  0.070	 -0.050
244.852	  0.060	 -0.055
244.856	  0.060	 -0.050
244.860	  0.060	 -0.050
244.864	  0.065	 -0.050
244.868	  0.055	 -0.050
244.872	  0.050	 -0.055
244.876	  0.030	 -0.055
244.880	  0.010	 -0.060
244.884	  0.005	 -0.065
244.888	  0.005	 -0.065
244.892	  0.005	 -0.065
244.896	  0.005	 -0.055
244.900	  0.000	 -0.055
244.904	  0.000	 -0.055
244.908	  0.000	 -0.055
244.912	  0.000	 -0.055
244.916	 -0.005	 -0.055
244.920	 -0.005	 -0.050
244.924	 -0.005	 -0.060
244.928	 -0.005	 -0.055
244.932	 -0.005	 -0.055
244.936	 -0.015	 -0.055
244.940	 -0.015	 -0.060
244.944	 -0.020	 -0.060
244.948	 -0.020	 -0.055
244.952	 -0.005	 -0.045
244.956	 -0.005	 -0.035
244.960	  0.000	 -0.030
244.964	  0.000	 -0.030
244.968	  0.000	 -0.030
244.972	  0.005	 -0.020
244.976	  0.015	 -0.015
244.980	  0.030	 -0.010
244.984	  0.025	 -0.015
244.988	  0.030	 -0.035
244.992	  0.030	 -0.040
244.996	  0.030	 -0.040
245.000	  0.035	 -0.045
245.004	  0.035	 -0.045
245.008	  0.035	 -0.040
245.012	  0.040	 -0.035
245.016	  0.035	 -0.025
245.020	  0.035	 -0.020
245.024	  0.045	 -0.020
245.028	  0.035	 -0.025
245.032	  0.025	 -0.060
245.036	  0.005	 -0.060
245.040	  0.005	 -0.065
245.044	  0.010	 -0.070
245.048	  0.010	 -0.065
245.052	  0.005	 -0.060
245.056	  0.000	 -0.060
245.060	 -0.005	 -0.060
245.064	 -0.005	 -0.055
245.068	 -0.020	 -0.060
245.072	 -0.025	 -0.055
245.076	 -0.040	 -0.055
245.080	 -0.050	 -0.060
245.084	 -0.055	 -0.060
245.088	 -0.050	 -0.060
245.092	 -0.055	 -0.060
245.096	 -0.060	 -0.060
245.100	 -0.060	 -0.060
245.104	 -0.055	 -0.060
245.108	 -0.055	 -0.060
245.112	 -0.060	 -0.055
245.116	 -0.060	 -0.055
245.120	 -0.075	 -0.055
245.124	 -0.125	 -0.045
245.128	 -0.165	 -0.025
245.132	 -0.145	  0.005
245.136	  0.015	  0.030
245.140	  0.320	  0.035
245.144	  0.750	 -0.025
245.148	  1.270	 -0.105
245.152	  1.790	 -0.130
245.156	  2.200	 -0.090
245.160	  2.330	  0.005
245.164	  2.010	  0.110
245.168	  1.285	  0.180
245.172	  0.425	  0.205
245.176	 -0.230	  0.210
245.180	 -0.510	  0.215
245.184	 -0.525	  0.260
245.188	 -0.430	  0.340
245.192	 -0.375	  0.425
245.196	 -0.370	  0.475
245.200	 -0.370	  0.500
245.204	 -0.375	  0.510
245.208	 -0.380	  0.520
245.212	 -0.385	  0.540
245.216	 -0.390	  0.555
245.220	 -0.385	  0.555
245.224	 -0.370	  0.535
245.228	 -0.350	  0.500
245.232	 -0.315	  0.460
245.236	 -0.260	  0.395
245.240	 -0.195	  0.300
245.244	 -0.145	  0.200
245.248	 -0.110	  0.125
245.252	 -0.090	  0.075
245.256	 -0.070	  0.045
245.260	 -0.050	  0.020
245.264	 -0.030	  0.000
245.268	 -0.020	 -0.010
245.272	 -0.020	 -0.025
245.276	 -0.020	 -0.035
245.280	 -0.010	 -0.040
245.284	  0.000	 -0.045
245.288	  0.005	 -0.045
245.292	  0.005	 -0.045
245.296	  0.010	 -0.045
245.300	  0.015	 -0.045
245.304	  0.015	 -0.050
245.308	  0.020	 -0.050
245.312	  0.020	 -0.055
245.316	  0.025	 -0.055
245.320	  0.030	 -0.055
245.324	  0.035	 -0.060
245.328	  0.045	 -0.060
245.332	  0.055	 -0.060
245.336	  0.060	 -0.060
245.340	  0.070	 -0.060
245.344	  0.090	 -0.060
245.348	  0.110	 -0.065
245.352	  0.110	 -0.065
245.356	  0.110	 -0.075
245.360	  0.105	 -0.075
245.364	  0.115	 -0.080
245.368	  0.135	 -0.080
245.372	  0.155	 -0.085
245.376	  0.170	 -0.090
245.380	  0.180	 -0.095
245.384	  0.195	 -0.105
245.388	  0.210	 -0.125
245.392	  0.240	 -0.135
245.396	  0.270	 -0.140
245.400	  0.305	 -0.150
245.404	  0.325	 -0.165
245.408	  0.350	 -0.185
245.412	  0.370	 -0.195
245.416	  0.415	 -0.200
245.420	  0.450	 -0.205
245.424	  0.465	 -0.215
245.428	  0.470	 -0.240
245.432	  0.480	 -0.250
245.436	  0.490	 -0.255
245.440	  0.515	 -0.260
245.444	  0.530	 -0.260
245.448	  0.530	 -0.260
245.452	  0.530	 -0.260
245.456	  0.525	 -0.260
245.460	  0.530	 -0.260
245.464	  0.515	 -0.245
245.468	  0.490	 -0.240
245.472	  0.430	 -0.240
245.476	  0.385	 -0.240
245.480	  0.365	 -0.210
245.484	  0.345	 -0.175
245.488	  0.320	 -0.160
245.492	  0.275	 -0.155
245.496	  0.230	 -0.150
245.500	  0.200	 -0.140
245.504	  0.175	 -0.115
245.508	  0.160	 -0.095
245.512	  0.135	 -0.090
245.516	  0.115	 -0.080
245.520	  0.095	 -0.070
245.524	  0.080	 -0.050
245.528	  0.080	 -0.050
245.532	  0.055	 -0.040
245.536	  0.050	 -0.040
245.540	  0.045	 -0.030
245.544	  0.040	 -0.015
245.548	  0.035	 -0.010
245.552	  0.030	 -0.010
245.556	  0.025	 -0.010
245.560	  0.020	 -0.005
245.564	  0.015	  0.000
245.568	  0.015	  0.000
245.572	  0.020	  0.005
245.576	  0.020	  0.005
245.580	  0.015	  0.005
245.584	  0.015	  0.005
245.588	  0.010	  0.000
245.592	  0.010	  0.000
245.596	  0.010	  0.005
245.600	  0.015	  0.005
245.604	  0.015	  0.005
245.608	  0.010	  0.005
245.612	  0.015	  0.010
245.616	  0.010	  0.005
245.620	  0.015	  0.005
245.624	  0.015	  0.000
245.628	  0.020	  0.000
245.632	  0.010	  0.000
245.636	  0.005	  0.000
245.640	  0.000	  0.005
245.644	  0.005	  0.000
245.648	  0.010	  0.000
245.652	  0.005	 -0.005
245.656	 -0.005	 -0.015
245.660	 -0.005	 -0.015
245.664	 -0.005	 -0.010
245.668	 -0.005	 -0.010
245.672	  0.000	 -0.010
245.676	 -0.005	 -0.010
245.680	 -0.005	 -0.015
245.684	  0.000	 -0.015
245.688	 -0.005	 -0.015
